101.47,135,152,155.64,289,0.64539,1.4293,0.84313,0.49365,73.107,0.52052,158.14,0.72726,97.747,214,155,159.14,298,0.78481,1.7575,0.49944,0.40446,49.076,0.53224,142.77,0.691,59.176,84,142,47.408,291,1.2114,1.8177,0.47068,0.2476,18.392,0.15855,12.752,0.20651,34.267,38,150,13.175,282,1.7106,2.0519,0.43349,0.13932,5.8228,0.044062,0.90091,0.054891,58.317,78,144,59.203,283,1.4607,1.4036,0.78388,0.2397,17.237,0.198,22.002,0.27126,36.182,211,150,59.736,298,1.618,1.646,0.60226,0.155,7.2079,0.19979,19.914,0.25808,18.416,89,153,14.907,280,2.1912,1.5247,0.51575,0.080179,1.9286,0.049856,1.2547,0.06478,15.822,34,150,4.3569,241,2.3564,1.5391,0.43751,0.067345,1.3606,0.014572,0.095277,0.017851
123.92,125,142,184.22,292,0.36955,1.4079,1.4034,0.67755,137.72,0.61613,272.2,0.95412,120.87,208,147,187.74,296,0.50925,0.55826,0.90305,0.55557,92.599,0.62789,241.38,0.89849,90.222,78,151,67.696,298,0.79655,1.0464,0.68488,0.39936,47.847,0.22641,26.508,0.29775,60.887,31,152,16.53,283,1.0959,1.4211,0.65133,0.28298,24.024,0.055283,1.5907,0.072938,52.043,82,147,56.143,281,1.5293,0.58235,0.68344,0.22216,14.807,0.18777,18.107,0.24609,35.139,208,154,55.87,295,1.6984,2.0201,0.41719,0.14132,5.9913,0.18686,16.004,0.23136,18.656,87,153,15.385,281,2.2031,2.2304,0.46883,0.079088,1.8765,0.051453,1.2873,0.065614,12.565,36,161,4.0335,235,2.5624,1.4165,0.47296,0.053068,0.84485,0.01349,0.087324,0.01709
134.73,112,154,193.48,293,0.26725,1.3773,1.0012,0.73823,163.5,0.64709,297.35,0.99723,123.84,205,149,195.69,297,0.50911,0.84938,0.64186,0.55679,93.005,0.65448,254.17,0.92199,98.762,85,144,73.769,295,0.69682,0.4463,0.62744,0.44783,60.166,0.24672,31.241,0.32324,79.611,35,142,22.601,290,0.92343,1.5857,0.54868,0.34714,36.152,0.075587,2.5257,0.091908,54.317,79,142,52.852,282,1.4991,0.54079,0.83698,0.22972,15.832,0.17676,19.02,0.25221,34.548,201,142,53.504,293,1.6633,1.75,0.60486,0.14712,6.4929,0.17894,17.256,0.24023,21.189,81,147,16.457,280,2.0817,1.9326,0.52653,0.091035,2.4862,0.055041,1.5046,0.070937,12.604,34,147,4.274,230,2.5752,1.3406,0.4459,0.051763,0.80381,0.014294,0.097976,0.018102
120.14,108,147,171.35,296,0.42921,2.32,0.99137,0.64343,124.2,0.57306,206.21,0.83047,117.93,200,142,170.77,293,0.55155,1.1646,0.58627,0.52915,84.001,0.57113,187.8,0.79251,66.225,86,157,49.167,289,1.0875,1.0857,0.48643,0.28563,24.476,0.16444,12.865,0.20743,71.294,36,142,23.586,286,1.0316,1.4117,0.49381,0.30509,27.924,0.078882,2.9149,0.098737,55.202,78,139,56.296,285,1.5042,0.91472,0.87233,0.2287,15.692,0.18828,19.864,0.25775,37.269,208,150,57.456,296,1.6275,0.99477,0.47802,0.15332,7.0517,0.19216,18.518,0.24886,16.822,92,150,13.743,281,2.2784,1.9281,0.51949,0.072475,1.5758,0.045963,1.0226,0.058482,20.587,33,158,5.7422,260,2.098,1.465,0.50099,0.089383,2.3968,0.019205,0.16536,0.023517
121.58,113,143,175.25,294,0.36382,1.3823,1.0726,0.66747,133.66,0.58611,240.58,0.89701,134.09,181,149,180.13,299,0.43066,0.29797,0.65118,0.61136,112.13,0.60245,222.17,0.862,91.865,69,144,57.338,295,0.76824,1.5701,0.56516,0.41344,51.28,0.19176,19.237,0.25365,59.345,28,171,13.434,280,1.233,1.5516,0.40581,0.24707,18.313,0.04493,0.83229,0.05276,55.148,91,139,58.132,279,1.4649,0.93463,0.77792,0.23507,16.578,0.19442,20.197,0.2599,36.602,210,154,57.143,295,1.6685,1.4731,0.40715,0.14625,6.4168,0.19111,17.682,0.24318,22.265,88,146,17.386,279,2.018,0.83157,0.57733,0.098019,2.8823,0.058148,1.7458,0.076412,18.351,34,157,5.5925,254,2.2571,1.5755,0.4201,0.074976,1.6864,0.018704,0.15851,0.023025
141,117,154,195.32,293,0.28918,1.3656,1.0002,0.73917,163.91,0.65323,277.08,0.96265,130.36,195,156,196.75,296,0.47954,0.98855,0.65078,0.57533,99.301,0.65804,241.32,0.89839,79.146,94,146,67.142,295,0.87483,1.8907,0.65039,0.36467,39.895,0.22456,28.574,0.30914,83.119,31,153,24.708,291,0.92397,1.4766,0.4238,0.34482,35.67,0.082635,3.1608,0.10282,57.544,72,143,55.173,279,1.5066,0.76076,0.84678,0.2388,17.108,0.18453,18.967,0.25186,34.583,202,152,55.488,293,1.6824,1.9942,0.50518,0.1439,6.2122,0.18558,17.187,0.23975,21.308,81,146,16.422,278,2.0611,1.1057,0.56121,0.093085,2.5995,0.054922,1.6134,0.073458,15.578,34,151,5.2204,250,2.3929,1.5564,0.43555,0.063596,1.2133,0.01746,0.14194,0.021788
127.34,127,141,188.46,291,0.29519,1.3686,1.0473,0.71676,154.12,0.63029,270.53,0.9512,130.56,196,146,193.59,299,0.46259,0.55994,0.64945,0.58668,103.26,0.64745,245.52,0.90617,89.36,83,154,63.456,295,0.78889,0.81525,0.53912,0.40333,48.801,0.21223,22.352,0.27341,89.737,31,142,24.198,291,0.78967,1.558,0.56301,0.40233,48.561,0.080928,3.3028,0.1051,48.681,90,149,49.46,292,1.6281,1.4869,0.58984,0.19706,11.65,0.16542,13.168,0.20986,31.997,198,151,48.534,297,1.7863,2.4177,0.40614,0.12768,4.8908,0.16232,12.029,0.20058,18.896,74,149,13.208,285,2.2106,0.98955,0.44394,0.078367,1.8424,0.044173,0.90331,0.054965,12.932,29,151,3.4439,230,2.53,1.378,0.45005,0.054239,0.88256,0.011518,0.058378,0.013973
111.47,130,144,165.3,291,0.53189,1.3762,1.0717,0.56172,94.659,0.55285,185.54,0.78773,104.04,209,140,166.98,297,0.70712,0.73423,0.61927,0.44252,58.748,0.55845,166.6,0.74645,65.059,90,150,52.544,290,1.0975,1.5005,0.5808,0.28282,23.995,0.17573,15.42,0.2271,50.573,36,152,17.17,285,1.3423,2.0089,0.47458,0.21293,13.602,0.057425,1.5005,0.07084,52.906,76,143,52.597,290,1.6174,1.4738,0.76161,0.21504,13.872,0.17591,16.054,0.23172,34.389,204,152,53.564,296,1.7162,0.99602,0.41246,0.13847,5.7523,0.17914,14.883,0.2231,17.826,80,149,13.861,282,2.228,1.1089,0.56367,0.076783,1.7687,0.046357,1.049,0.05923,11.948,38,141,4.4688,250,2.6107,0.97865,0.43062,0.049444,0.73342,0.014946,0.10708,0.018924
136.27,136,142,198.58,290,0.34889,1.3809,1.0271,0.68651,141.39,0.66415,271.8,0.95343,127.97,208,136,202.93,296,0.55291,1.7171,0.5628,0.52835,83.748,0.67871,233.23,0.88319,81.12,89,155,70.248,299,0.89748,1.3776,0.60651,0.35529,37.869,0.23494,29.293,0.313,75.529,31,151,19.504,287,1.0134,1.4645,0.44519,0.31572,29.904,0.065232,1.9442,0.080636,53.538,106,140,55.709,283,1.5482,0.87231,0.56896,0.22103,14.656,0.18632,16.658,0.23603,33.889,218,150,55.499,299,1.745,1.2878,0.38528,0.1339,5.3788,0.18562,14.573,0.22077,18.922,92,147,15.721,284,2.1898,1.6336,0.47117,0.080249,1.932,0.052579,1.3278,0.066639,15.883,36,147,5.4675,255,2.3701,2.31,0.40144,0.065229,1.2764,0.018286,0.15065,0.022446
122.72,126,147,180.12,295,0.40077,1.3648,0.98029,0.6416,123.5,0.6024,240.14,0.89618,124.36,187,156,183.52,296,0.50721,0.34727,0.6349,0.55742,93.214,0.61379,216.5,0.85093,86.729,81,143,62.935,295,0.82667,0.99258,0.56262,0.38543,44.568,0.21049,21.616,0.26888,68.326,34,155,18.971,284,1.0244,2.7726,0.51281,0.30696,28.267,0.063448,1.9968,0.081721,56.19,84,141,56.5,282,1.5166,1.4678,0.64853,0.2283,15.637,0.18896,17.971,0.24516,35.316,210,147,55.875,296,1.6956,1.8475,0.42958,0.14173,6.0263,0.18687,16.113,0.23214,22.295,83,152,16.555,283,2.0741,1.6259,0.4297,0.09192,2.5348,0.055367,1.3927,0.068249,15.138,31,150,4.5793,254,2.4372,1.9378,0.35307,0.060361,1.0931,0.015315,0.10149,0.018424
127.09,131,136,179.28,287,0.44666,1.3676,0.89424,0.60657,110.38,0.59959,210.58,0.83921,113.18,203,141,181.93,296,0.64402,1.3154,0.52825,0.47589,67.94,0.60846,188.62,0.79425,79.092,84,151,56.061,292,0.84049,0.36846,0.69094,0.37962,43.234,0.1875,20.063,0.25904,43.797,34,160,13.856,276,1.4232,1.6267,0.59009,0.19395,11.285,0.046341,1.1913,0.06312,55.221,93,137,58.464,284,1.5005,0.52806,0.80282,0.22933,15.778,0.19553,21.427,0.2677,36.904,207,143,58.95,298,1.6335,1.7503,0.52231,0.15239,6.9668,0.19716,19.535,0.25561,17.038,88,147,14.489,280,2.2627,2.3795,0.68793,0.073819,1.6348,0.048458,1.3298,0.066689,18.234,34,149,6.07,256,2.2804,1.5789,0.33699,0.072421,1.5734,0.020301,0.17753,0.024367
147.2,128,146,197.92,294,0.33925,1.365,0.8579,0.69315,144.14,0.66193,248.27,0.91122,131.53,197,150,197.85,299,0.5037,1.7813,0.60282,0.55966,93.967,0.66172,221.64,0.86097,82.639,83,151,60.912,291,0.87157,1.7512,0.60462,0.36604,40.195,0.20372,21.346,0.26719,58.051,31,156,18.283,280,1.2621,1.9764,0.35785,0.23349,16.356,0.061147,1.6638,0.074595,57.069,92,140,60.555,285,1.4556,1.4214,0.66232,0.234,16.427,0.20253,20.865,0.26416,38.1,212,151,60.303,293,1.6313,2.232,0.42877,0.15262,6.9881,0.20168,18.841,0.25103,24.183,83,149,18.009,289,1.9793,0.87411,0.507,0.10235,3.1426,0.06023,1.6769,0.07489,17.211,34,154,5.4573,258,2.3123,2.9487,0.37291,0.069688,1.4569,0.018252,0.14012,0.021648
173.55,143,152,256.27,294,0.19354,1.3818,0.71045,0.81273,198.16,0.85708,378.48,1.1251,157.27,211,157,250.8,298,0.38514,2.0991,0.44371,0.64094,123.24,0.83878,342.33,1.07,90.968,80,158,69.629,294,0.80148,0.92134,0.53644,0.39685,47.247,0.23287,26.966,0.30031,72.29,35,145,20.319,289,0.9678,1.1854,0.57282,0.32875,32.424,0.067958,2.1423,0.084647,56.078,96,147,57.622,282,1.4784,0.80284,0.67011,0.23231,16.191,0.19272,19.079,0.2526,37.219,198,151,57.702,294,1.642,1.038,0.45429,0.15076,6.8185,0.19298,17.636,0.24287,19.265,82,150,15.359,284,2.1758,2.2371,0.47589,0.081537,1.9945,0.051368,1.2236,0.063971,16.073,35,160,5.2901,251,2.3381,1.4485,0.5026,0.067719,1.3757,0.017693,0.13879,0.021545
186.05,140,151,268.23,298,0.15704,1.4485,0.61158,0.85215,217.85,0.89708,411.35,1.1729,165.66,210,156,270.23,297,0.36431,1.8015,0.36612,0.65633,129.23,0.90379,374.77,1.1196,102.47,85,149,77.053,295,0.70743,2.2286,0.55232,0.44221,58.664,0.2577,30.897,0.32146,63.441,38,151,23.811,287,1.1544,2.2163,0.41312,0.26441,20.974,0.079636,2.9663,0.099603,60.706,96,145,64.152,286,1.4001,1.3769,0.65888,0.24673,18.263,0.21456,22.929,0.27692,43.963,187,149,64.772,297,1.5197,2.1349,0.41339,0.17359,9.0395,0.21663,21.563,0.26855,21.694,74,145,14.852,281,2.05,1.4543,0.58332,0.094249,2.6649,0.049672,1.2242,0.063988,16.977,32,138,5.1093,243,2.3291,0.95449,0.38299,0.068396,1.4034,0.017088,0.13191,0.021004
188.45,131,152,289.85,294,0.0084405,1.3916,1.1649,0.99231,295.41,0.9694,635.82,1.4583,187.08,204,154,294.26,299,0.15015,0.65199,0.76748,0.84167,212.52,0.98415,581.2,1.3942,115.7,78,150,90.071,295,0.61706,1.6294,0.49137,0.49081,72.267,0.30124,46.886,0.39599,63.284,36,138,21.445,283,1.068,1.0815,0.57258,0.29336,25.819,0.071721,3.0054,0.10026,57.863,82,142,59.739,286,1.3992,0.80077,0.81094,0.24812,18.469,0.1998,22.378,0.27358,37.287,202,155,59.422,295,1.5969,1.4968,0.50986,0.1588,7.5653,0.19874,20.354,0.26091,24.697,78,155,17.489,278,1.9406,1.4992,0.51275,0.10698,3.4332,0.058493,1.7456,0.076408,12.127,33,150,4.0507,239,2.6011,2.1409,0.43493,0.049979,0.74938,0.013548,0.080408,0.016399
193.59,158,149,303.19,298,0.10796,1.4852,0.67939,0.89719,241.49,1.014,510.28,1.3064,193.67,208,147,308,299,0.24089,0.94669,0.36866,0.75654,171.71,1.0301,466.64,1.2493,117.4,82,144,86.275,294,0.59641,0.77128,0.54555,0.5034,76.023,0.28854,40.685,0.36888,71.967,37,151,23.532,287,1.012,2.3063,0.45197,0.31153,29.116,0.078704,2.8373,0.097413,62.266,104,141,71.141,285,1.349,0.73756,0.61258,0.25995,20.273,0.23793,27.809,0.30497,45.354,200,147,71.329,296,1.4816,1.3386,0.39622,0.18138,9.8697,0.23856,25.947,0.29458,23.372,78,148,16.91,286,1.9844,1.9743,0.60232,0.10169,3.1025,0.056556,1.6486,0.074254,14.299,34,154,4.4648,220,2.3568,2.2637,0.64235,0.066203,1.3149,0.014932,0.12308,0.020289
202.05,140,143,306.2,296,0.063292,1.4156,0.69935,0.93966,264.89,1.0241,554.33,1.3616,188.73,214,141,304.94,299,0.20029,0.85812,0.56642,0.79346,188.88,1.0199,503.75,1.298,113.66,83,144,88.028,296,0.59133,0.67752,0.68055,0.50544,76.639,0.29441,43.495,0.3814,62.862,33,150,19.859,286,1.142,0.72842,0.44415,0.26839,21.61,0.066418,2.2333,0.086425,62.664,107,145,69.126,289,1.3528,1.4288,0.63454,0.2551,19.522,0.23119,26.113,0.29552,46.803,193,151,69.224,295,1.4718,1.36,0.36461,0.1834,10.091,0.23152,23.694,0.2815,23.427,74,154,17.107,279,2.0174,1.6307,0.4865,0.097873,2.8737,0.057214,1.7109,0.075645,15.754,28,169,4.5572,215,2.356,0.98842,0.41183,0.066281,1.3179,0.015241,0.12053,0.020078
195.6,140,148,286.61,298,0.017756,1.3694,0.925,0.98588,291.59,0.95857,547.37,1.353,192.73,197,147,289.33,298,0.18048,2.3737,0.48908,0.81262,198.1,0.96767,490.7,1.2811,121.78,79,149,88.147,297,0.55005,1.5848,0.51413,0.53085,84.541,0.2948,44.017,0.38368,109.88,29,156,30.319,288,0.70526,1.7607,0.36384,0.44392,59.118,0.1014,4.5455,0.1233,57.199,127,147,68.998,289,1.3781,0.53779,0.6419,0.24595,18.147,0.23076,26.374,0.297,41.742,221,153,68.137,297,1.5513,1.6859,0.44613,0.16742,8.4085,0.22788,23.871,0.28256,22.458,93,149,17.225,280,1.9962,0.77653,0.52981,0.10038,3.0228,0.057608,1.7004,0.075412,14.701,38,147,5.3197,246,2.4606,1.5193,0.3896,0.059045,1.0459,0.017792,0.14176,0.021774
208.72,136,137,307.42,295,0.0019334,1.3727,0.83233,1.0094,305.66,1.0282,559.02,1.3674,202.2,201,142,307.64,299,0.1722,1.1289,0.49306,0.81891,201.18,1.0289,508.43,1.304,133.93,76,145,88.633,297,0.42188,0.011994,0.8214,0.61595,113.82,0.29643,42.495,0.37699,88.583,31,147,25.721,287,0.87923,2.5688,0.37962,0.36284,39.495,0.086023,3.6662,0.11073,64.982,97,143,74.942,285,1.2681,1.508,0.66544,0.27645,22.928,0.25064,29.924,0.31636,46.506,207,153,72.746,293,1.4601,0.97216,0.44923,0.1859,10.368,0.2433,26.683,0.29873,28.524,82,146,21.031,286,1.8214,1.6937,0.47555,0.12263,4.5115,0.070336,2.3596,0.088835,16.537,36,152,5.7288,256,2.3199,0.9341,0.40598,0.069138,1.434,0.01916,0.16742,0.023663
203.98,150,152,293.27,296,0.10876,1.394,0.62863,0.89833,242.1,0.98083,463.07,1.2445,189.36,201,149,292.92,299,0.2439,2.4102,0.40542,0.75536,171.17,0.97965,420.38,1.1857,83.316,94,150,72.589,295,0.85621,2.3312,0.58913,0.37269,41.67,0.24277,31.372,0.32392,67.539,39,153,24.976,291,1.0979,1.8338,0.42014,0.28217,23.885,0.083531,3.2362,0.10404,62.044,100,144,68.335,279,1.3389,1.4714,0.59584,0.25723,19.85,0.22855,26.142,0.29569,40.842,204,157,67.228,295,1.5506,1.5392,0.46364,0.16751,8.4174,0.22484,22.86,0.2765,25.446,80,153,20.82,287,1.957,1.1331,0.4194,0.1049,3.3014,0.069633,2.3947,0.089493,16.502,32,142,4.8997,254,2.3169,0.85962,0.46201,0.069403,1.445,0.016387,0.12345,0.020319
216.74,149,149,319.99,296,0.011255,1.366,0.89015,0.99209,295.27,1.0702,580.72,1.3936,199.17,214,150,322.43,298,0.18733,1.0069,0.51572,0.8062,194.99,1.0784,517.6,1.3157,123.93,84,150,100.43,297,0.55095,0.73958,0.54674,0.52968,84.168,0.33587,53.984,0.42491,82.751,33,141,28.097,293,0.96083,1.2004,0.36925,0.33031,32.732,0.093969,3.9732,0.11528,60.992,122,146,72.927,292,1.285,1.466,0.72573,0.26079,20.404,0.2439,30.947,0.32171,44.71,218,151,72.12,293,1.4745,1.7652,0.53722,0.18331,10.081,0.2412,27.928,0.30562,26.929,89,152,21.073,285,1.8839,0.87576,0.50141,0.11411,3.9064,0.070477,2.4216,0.089994,22.568,33,143,6.4215,259,1.9828,1.425,0.62864,0.10204,3.1235,0.021476,0.20944,0.026466
229.12,136,140,327.95,299,0.019296,1.3921,0.69126,1.0316,319.24,1.0968,609.36,1.4276,215.11,192,146,320.78,299,0.098085,1.9882,0.53275,0.89197,238.68,1.0729,565.13,1.3748,119.83,69,157,80.411,296,0.6262,1.8344,0.47094,0.48572,70.778,0.26893,32.844,0.33143,79.247,24,156,18.98,291,0.98264,1.3198,0.40596,0.32362,31.419,0.063477,1.9402,0.080554,70.886,117,158,81.803,292,1.1698,1.4478,0.56605,0.29547,26.191,0.27359,38.584,0.35923,55.739,185,157,82.566,297,1.3031,1.9993,0.41142,0.22285,14.898,0.27614,36.145,0.34769,30.788,75,148,21.126,284,1.7849,1.3988,0.48391,0.12797,4.9128,0.070655,2.1548,0.084892,16.983,36,154,5.595,256,2.2952,1.0922,0.44063,0.071349,1.5272,0.018712,0.15901,0.023061
255.72,129,151,372.55,297,0.13815,1.3666,0.75145,1.178,416.32,1.246,785.83,1.6212,245.05,198,147,371.31,299,0.016993,0.87735,0.44469,0.97899,287.53,1.2418,715.68,1.5471,137.64,84,150,97.839,294,0.44241,0.39225,0.57278,0.60194,108.7,0.32722,50.511,0.41101,134.33,28,150,33.823,290,0.55255,0.85598,0.32613,0.53326,85.309,0.11312,5.647,0.13743,68.291,116,157,81.497,294,1.2126,1.5307,0.64039,0.289,25.057,0.27257,34.594,0.34015,48.783,206,156,77.779,294,1.4127,1.7682,0.38008,0.19644,11.577,0.26013,30.911,0.32153,27.469,86,143,20.711,283,1.8125,1.1077,0.59989,0.12392,4.607,0.069266,2.5019,0.091474,15.759,34,139,5.0576,254,2.4066,1.7175,0.31936,0.062513,1.1724,0.016915,0.1221,0.020208
217.99,147,146,319.51,298,0.006161,1.4664,0.68645,1.0012,300.7,1.0686,620.14,1.4402,212.81,190,148,318.67,299,0.14309,1.5431,0.40955,0.84703,215.24,1.0658,568.95,1.3794,107.78,79,150,80.325,292,0.68606,1.9861,0.50318,0.45405,61.847,0.26865,36.394,0.34888,60.04,37,145,19.785,284,1.0783,1.4054,0.7486,0.28895,25.048,0.066171,2.5447,0.092253,71.902,125,153,91.394,293,1.1287,2.7475,0.59095,0.30915,28.671,0.30567,45.788,0.39133,55.729,207,157,89.369,298,1.2969,1.6775,0.44705,0.22433,15.098,0.29889,41.747,0.37366,33.001,81,138,23.766,292,1.6971,1.5584,0.47618,0.14149,6.0061,0.079484,3.0708,0.10134,15.503,34,151,5.0055,252,2.385,1.7918,0.42967,0.064103,1.2328,0.016741,0.11822,0.019885
228.73,147,148,330.68,299,0.00016754,1.3795,0.63276,1.0081,304.89,1.106,617.01,1.4365,212.45,208,146,335.24,299,0.1596,2.7951,0.38685,0.83208,207.71,1.1212,565.6,1.3754,130.27,76,143,94.8,297,0.52886,1.2081,0.46376,0.5434,88.583,0.31706,47.038,0.39663,61.207,33,159,19.661,288,1.1804,0.56528,0.49084,0.25709,19.828,0.065757,2.0375,0.082548,69.32,117,138,81.701,288,1.1738,1.9131,0.55734,0.29253,25.673,0.27325,34.815,0.34123,53.41,193,148,78.831,296,1.329,1.7722,0.4513,0.21621,14.024,0.26365,31.702,0.32562,28.524,75,151,19.933,284,1.8293,1.7969,0.47819,0.12151,4.4296,0.066666,2.0455,0.082711,17.27,28,151,4.5548,245,2.3111,1.5832,0.41796,0.070159,1.4767,0.015233,0.096847,0.017997
242.93,144,146,349.6,296,0.097597,1.3645,0.75925,1.1213,377.17,1.1692,732.37,1.5651,212.66,211,151,346.59,298,0.13295,3.1468,0.41492,0.85666,220.16,1.1592,626.85,1.4479,131.58,87,160,113.19,298,0.47613,0.96231,0.57119,0.5774,100.02,0.37856,78.079,0.51101,98.348,32,145,31.152,290,0.79903,1.559,0.40735,0.39891,47.739,0.10419,4.8046,0.12676,67.306,106,149,82.722,291,1.2596,1.5748,0.58967,0.27792,23.172,0.27666,36.775,0.3507,50.012,208,151,81.852,298,1.3929,1.6472,0.43054,0.20083,12.1,0.27375,33.835,0.33639,23.02,92,156,19.183,284,2.0204,1.676,0.47788,0.097513,2.8527,0.064159,1.9283,0.080307,14.055,38,146,5.1845,253,2.4846,1.6991,0.41206,0.057149,0.9798,0.01734,0.1291,0.020779
218.19,143,153,303.88,298,0.037984,1.3684,0.67776,0.96652,280.25,1.0163,517.28,1.3153,195.71,201,152,298.58,298,0.21183,1.9852,0.41712,0.78295,183.9,0.99858,469.14,1.2526,115.31,84,152,85.597,297,0.61392,1.3196,0.47611,0.49253,72.775,0.28628,38.872,0.36056,70.498,36,147,23.378,284,1.0285,1.4417,0.51444,0.30683,28.244,0.078187,2.934,0.099059,75.116,120,143,91.267,292,1.0795,1.3644,0.74989,0.31202,29.206,0.30524,47.798,0.39982,56.1,209,150,91.309,299,1.286,2.7727,0.57045,0.2274,15.513,0.30538,42.695,0.37788,32.277,88,153,25.485,287,1.7032,0.78017,0.52239,0.14089,5.9547,0.085235,3.6252,0.11011,24.106,35,148,7.796,269,1.9736,1.4268,0.54744,0.103,3.1825,0.026074,0.29995,0.031673
236.7,135,149,335.65,295,0.068874,1.3652,0.91733,1.0914,357.37,1.1226,676.45,1.5041,222.22,190,147,335.9,299,0.063843,0.74461,0.54707,0.92852,258.64,1.1234,626.5,1.4475,142.17,75,153,96.126,295,0.43513,1.9977,0.46044,0.60497,109.8,0.32149,50.233,0.40988,75.549,30,143,20.814,280,0.92251,1.4344,0.68303,0.3452,35.748,0.069611,2.9971,0.10012,74.424,124,139,93.205,289,1.0894,0.36781,0.67565,0.32972,32.615,0.31172,47.847,0.40003,57.654,205,137,92.811,296,1.2756,1.4241,0.41066,0.22987,15.852,0.3104,43.855,0.38298,28.936,81,156,22.719,289,1.8284,2.5014,0.49532,0.12166,4.4406,0.075983,2.6808,0.094689,19.549,37,156,6.6886,250,2.1592,0.72016,0.48846,0.083133,2.0734,0.02237,0.22895,0.027672
250.31,148,154,360.13,296,0.047105,1.4023,0.54271,1.0632,339.12,1.2045,684.98,1.5136,224.93,203,151,353.49,298,0.087325,1.3214,0.39941,0.90323,244.75,1.1823,638.6,1.4614,117.76,81,145,84.798,298,0.62214,1.9919,0.42683,0.48786,71.402,0.28361,35.237,0.34329,70.263,33,154,21.641,290,1.1078,1.8028,0.34671,0.27897,23.347,0.072379,2.1329,0.084459,70.886,118,140,84.431,293,1.1656,1.5248,0.62802,0.29879,26.783,0.28238,39.959,0.36557,52.061,205,143,82.965,295,1.3381,1.8729,0.41234,0.21398,13.736,0.27747,36.725,0.35047,25.963,78,147,19.137,286,1.9342,0.98568,0.45995,0.1078,3.4863,0.064003,1.933,0.080405,33.479,26,164,7.1491,256,1.7125,0.67756,0.45136,0.13999,5.8789,0.02391,0.2958,0.031453
247.03,148,143,364.93,299,0.05185,1.4232,0.62757,1.0705,343.79,1.2205,699.09,1.5291,234.9,202,145,358.84,298,0.061588,1.2131,0.41806,0.93134,260.22,1.2002,647.23,1.4713,109.03,83,144,78.945,299,0.64583,0.62407,0.52885,0.47547,67.821,0.26403,34.369,0.33904,86.46,32,149,24.746,291,0.8237,1.5152,0.56011,0.38747,45.039,0.082763,3.1593,0.10279,65.336,113,141,78.462,288,1.2438,1.4616,0.50494,0.26908,21.721,0.26241,32.245,0.32839,50.601,202,151,77.512,294,1.3826,1.8702,0.41659,0.20334,12.405,0.25924,29.552,0.31438,25.29,78,153,18.937,282,1.9713,2.5107,0.44572,0.10324,3.1975,0.063334,1.8881,0.079466,18.311,29,154,5.1064,246,2.2429,1.9402,0.40297,0.075488,1.7095,0.017078,0.15372,0.022674
235.95,149,153,328.03,296,0.053815,1.3644,0.76282,1.0693,343.02,1.0971,650.23,1.4747,206.3,205,152,329.02,297,0.13893,1.8016,0.46678,0.85133,217.43,1.1004,579.34,1.392,130.27,81,149,96.564,297,0.52191,0.83656,0.47024,0.54902,90.428,0.32296,47.754,0.39964,72.215,35,155,21.495,289,0.99278,0.57626,0.56537,0.32299,31.297,0.07189,2.7641,0.096149,73.824,117,154,86.063,291,1.1126,0.99938,0.56332,0.31573,29.905,0.28784,39.446,0.36322,52.293,217,154,83.585,298,1.38,2.4068,0.36971,0.20397,12.482,0.27955,33.867,0.33655,31.801,87,156,26.074,287,1.7505,0.68207,0.53547,0.13305,5.3107,0.087203,3.5403,0.10881,24.804,36,152,8.8824,275,2.0413,1.7438,0.30286,0.095358,2.728,0.029707,0.36346,0.034865
232,135,144,327.85,299,0.035775,1.3646,0.7716,1.0465,328.57,1.0965,625.31,1.4461,201.19,200,149,323.05,299,0.17328,2.177,0.44334,0.81783,200.65,1.0804,562.86,1.372,126.14,76,148,90.736,296,0.5689,1.8391,0.43569,0.51874,80.726,0.30347,46.009,0.39227,91.097,34,149,30.65,290,0.80541,1.8127,0.52788,0.39512,46.835,0.10251,5.112,0.13076,70.624,126,141,88.308,290,1.1723,1.5789,0.60812,0.29429,25.982,0.29534,43.851,0.38296,55.343,194,150,87.85,298,1.293,1.7712,0.42809,0.22539,15.24,0.29381,41.167,0.37106,24.326,84,141,19.731,284,1.9748,1.2875,0.45874,0.10278,3.1689,0.06599,2.0543,0.082889,16.844,36,140,5.7188,258,2.3011,0.98845,0.4452,0.0706,1.4953,0.019126,0.16722,0.023649
229.5,149,146,333.2,298,0.0044408,1.4234,0.61349,1.0085,305.11,1.1144,622.5,1.4429,204.8,204,141,332.51,298,0.1697,1.8555,0.37321,0.82116,202.29,1.1121,576.88,1.389,94.064,86,147,75.057,295,0.77406,0.97043,0.56863,0.40952,50.311,0.25103,31.734,0.32578,92.118,30,146,28.082,289,0.88289,1.6252,0.31056,0.36235,39.388,0.093919,4.0575,0.11649,76.338,120,149,91.063,291,1.0902,0.87512,0.56175,0.32327,31.351,0.30456,45.242,0.38899,59.435,186,146,89.2,297,1.2298,1.8706,0.44354,0.24233,17.617,0.29833,41.695,0.37343,34.583,74,157,24.398,283,1.6701,1.727,0.47629,0.14597,6.3923,0.081598,3.2276,0.1039,16.218,32,148,5.4184,252,2.3362,1.9072,0.49494,0.067802,1.3791,0.018122,0.15729,0.022936
215.72,130,146,286,299,0.072769,1.3752,0.76493,0.93561,262.61,0.95652,455.78,1.2347,179.77,202,146,277.34,299,0.27184,1.9347,0.45378,0.73051,160.09,0.92755,407.14,1.1669,100.24,81,142,75.189,296,0.70787,2.2567,0.60509,0.44483,59.362,0.25147,33.604,0.33524,62.626,36,141,22.221,284,1.1689,1.1015,0.40744,0.25999,20.278,0.074317,2.4974,0.091392,72.639,124,136,90.655,288,1.1107,1.4118,0.65301,0.30896,28.636,0.30319,47.392,0.39812,59.09,194,144,89.219,297,1.2224,0.81888,0.54275,0.24445,17.927,0.29839,44.463,0.38562,30.449,76,142,21.898,286,1.7871,1.9253,0.52803,0.12775,4.8961,0.073236,2.4454,0.090436,21.908,27,140,5.6524,258,2.0785,2.2771,0.47081,0.091248,2.4979,0.018904,0.15364,0.022669
253.77,128,152,329.61,297,0.094684,1.3697,0.64849,1.1198,376.19,1.1024,629.29,1.4507,222.67,191,149,329.45,298,0.075112,1.8668,0.47014,0.91708,252.31,1.1018,591.79,1.4068,109.9,78,155,76.995,295,0.62311,0.82011,0.54564,0.48763,71.335,0.25751,34.987,0.34207,100.37,27,152,25.053,287,0.77028,1.1982,0.43107,0.41288,51.142,0.08379,3.228,0.1039,71.183,104,149,86.752,290,1.1695,1.4204,0.66839,0.30204,27.368,0.29014,39.201,0.36209,52.146,212,148,84.746,296,1.3778,2.1549,0.3289,0.20437,12.53,0.28343,34.794,0.34113,33.018,85,156,24.879,290,1.6954,2.415,0.47582,0.14178,6.0303,0.083209,3.3354,0.10562,21.564,36,145,7.1372,265,2.118,1.3772,0.3525,0.087472,2.2954,0.02387,0.23648,0.028123
219.68,136,152,302.53,298,0.053564,1.3972,0.6448,0.94706,269.08,1.0118,518.65,1.317,188.47,206,149,303.1,297,0.25646,3.0949,0.4012,0.74321,165.71,1.0137,460.61,1.2412,114.77,85,146,90.326,297,0.6258,0.90121,0.47748,0.48597,70.85,0.30209,43.962,0.38345,70.162,38,143,25.277,290,1.0674,0.71809,0.43131,0.29254,25.674,0.084539,3.1863,0.10323,70.851,119,151,83.691,295,1.1434,1.0321,0.56619,0.29932,26.877,0.2799,40.397,0.36757,52.463,203,140,84.232,295,1.3453,2.7194,0.4233,0.21229,13.52,0.28171,36.294,0.3484,32.328,86,148,25.398,287,1.7308,1.9727,0.43392,0.13637,5.5787,0.084944,3.4894,0.10803,21.497,37,148,7.2201,268,2.1071,2.0079,0.37344,0.088264,2.3372,0.024147,0.24793,0.028796
218.33,150,146,318.74,296,0.039093,1.3683,0.72583,0.96332,278.4,1.066,584.23,1.3978,203.4,206,143,320.79,298,0.17642,1.0537,0.44064,0.81483,199.18,1.0729,534.6,1.3371,123.58,80,155,93.026,293,0.55292,1.8216,0.56035,0.52841,83.766,0.31112,49.994,0.4089,61.046,35,149,21.395,289,1.2108,3.7577,0.38143,0.24777,18.417,0.071556,2.2537,0.086819,69.221,116,151,85.374,293,1.1804,1.4365,0.59654,0.29125,25.448,0.28553,43.2,0.38011,54.316,203,146,85.247,297,1.3127,1.0094,0.44048,0.22025,14.553,0.28511,39.178,0.36198,24.933,91,155,21.839,287,1.9357,1.9369,0.55414,0.10753,3.4689,0.073039,2.7595,0.096068,15.221,41,151,5.4485,258,2.3585,0.59921,0.52153,0.066079,1.3099,0.018223,0.14992,0.022392
256.95,138,151,349.09,297,0.088389,1.3764,0.69899,1.1168,374.14,1.1675,728.6,1.561,215.89,214,157,341.82,299,0.098381,2.6557,0.57144,0.89199,238.69,1.1432,651.73,1.4764,113.89,90,149,98.552,296,0.58867,0.51098,0.73689,0.50693,77.093,0.32961,56.782,0.43578,98.656,35,151,31.16,289,0.77558,2.1722,0.3941,0.40997,50.422,0.10422,5.3764,0.13409,74.286,125,151,96.088,293,1.0819,2.1771,0.67651,0.32131,30.972,0.32136,51.909,0.41666,57.027,216,153,93.941,298,1.2297,1.9546,0.61204,0.24244,17.633,0.31418,47.15,0.39711,27.945,88,156,22.484,289,1.8539,1.6399,0.50549,0.11812,4.186,0.075196,2.8464,0.097569,20.106,31,153,6.1747,249,2.11,1.5384,0.5294,0.088001,2.3232,0.020651,0.23194,0.027852
256.54,144,147,362.96,296,0.09134,1.3942,0.65131,1.1187,375.43,1.2139,701.8,1.532,220.99,206,147,352.71,299,0.10359,1.6414,0.48067,0.88611,235.56,1.1796,622.76,1.4432,128.61,83,151,93.793,294,0.54245,0.78501,0.45373,0.53519,85.93,0.31369,47.245,0.39751,77.283,33,144,23.374,283,0.98444,1.4859,0.46396,0.32582,31.847,0.078175,3.1933,0.10334,67.25,140,133,85.145,288,1.2103,1.4898,0.5362,0.28103,23.694,0.28477,37.904,0.35605,51.888,215,145,84.959,298,1.3939,1.6901,0.31817,0.20061,12.074,0.28414,34.616,0.34026,27.325,84,155,20.299,283,1.8691,2.0655,0.48691,0.11612,4.0448,0.06789,2.3407,0.088479,17.493,37,141,5.947,252,2.1943,0.48143,0.72291,0.079837,1.9122,0.01989,0.20187,0.025984
209.96,136,144,295.23,294,0.033235,1.3653,1.011,0.96706,280.56,0.9874,549.96,1.3562,194.63,197,149,294.79,299,0.16777,1.923,0.61305,0.82433,203.85,0.98592,513.54,1.3105,108.58,81,147,79.407,295,0.66196,1.0704,0.5551,0.46658,65.308,0.26558,32.62,0.3303,88.389,33,152,25.584,286,0.78858,0.69898,0.55965,0.40303,48.731,0.085565,3.8094,0.11287,74.305,136,140,95.169,291,1.1185,0.5459,0.58593,0.31743,30.228,0.31829,48.073,0.40097,57.92,213,144,94.31,299,1.2839,1.4672,0.40432,0.22773,15.558,0.31542,43.894,0.38315,29.782,85,155,22.85,283,1.7999,1.2223,0.4501,0.12579,4.747,0.076423,2.8084,0.096915,18.236,36,138,6.6367,256,2.2266,1.4456,0.4742,0.076936,1.7757,0.022196,0.27852,0.030521
219.06,124,145,292.94,297,0.035934,1.3756,0.65242,0.97101,282.86,0.97972,469.8,1.2535,183.59,199,150,284.68,298,0.24913,2.503,0.43423,0.74982,168.67,0.95212,420.42,1.1858,110.58,77,145,81.055,295,0.66453,1.1786,0.45033,0.46458,64.751,0.27109,34.444,0.33941,82.832,32,153,25.255,287,0.93203,1.5041,0.41357,0.34168,35.025,0.084464,3.1645,0.10288,71.641,118,145,90.833,287,1.1437,0.71503,0.58799,0.30372,27.673,0.30379,47.24,0.39748,56.538,202,151,91.102,293,1.2922,1.4059,0.38237,0.22554,15.261,0.30469,43.063,0.3795,36.704,73,148,25.068,287,1.6194,1.6956,0.53027,0.15512,7.2184,0.08384,3.6454,0.11042,18.877,31,141,5.8111,245,2.2029,1.4299,0.47486,0.079069,1.8756,0.019435,0.17519,0.024206
241.51,136,161,329.2,299,0.011579,1.4209,0.55965,1.028,317.06,1.101,586.6,1.4007,205.13,208,153,325.42,299,0.18514,2.2149,0.34407,0.8068,195.28,1.0884,521.1,1.3202,113.83,81,143,87.096,297,0.63646,1.4703,0.4527,0.47996,69.109,0.29129,39.041,0.36135,75.927,36,142,27.14,284,0.99238,1.2115,0.50298,0.31872,30.475,0.090771,4.1521,0.11784,65.42,134,146,86.395,289,1.221,1.1305,0.51238,0.27516,22.713,0.28895,39.607,0.36396,54.262,211,151,86.812,297,1.3352,1.8178,0.42513,0.21462,13.819,0.29034,36.731,0.35049,24.311,90,151,20.683,287,1.9755,3.6868,0.44058,0.1027,3.1641,0.069173,2.3218,0.08812,15.971,34,152,4.46,238,2.3081,0.32901,0.53366,0.070085,1.4736,0.014916,0.10554,0.018787
221.31,143,157,298.62,296,0.0008425,1.3657,0.77821,1.0011,300.64,0.99874,520.47,1.3194,203.69,190,147,296.87,298,0.16597,1.053,0.49307,0.82703,205.19,0.99289,472.84,1.2575,111.8,78,150,79.419,298,0.62237,1.5779,0.51768,0.48777,71.377,0.26562,33.762,0.33603,86.491,28,133,25.605,288,0.8637,1.5304,0.5755,0.36985,41.037,0.085636,3.8634,0.11367,71.028,116,139,84.354,292,1.1479,0.48282,0.57126,0.30186,27.335,0.28212,40.643,0.36868,53.463,196,149,82.439,297,1.3232,1.564,0.47663,0.218,14.257,0.27571,36.906,0.35133,28.321,79,141,20.96,287,1.8481,1.2511,0.48556,0.11894,4.2444,0.070101,2.5409,0.092185,22.215,30,152,6.3571,252,2.0814,2.0912,0.38865,0.090944,2.4813,0.021261,0.21986,0.027117
237.21,141,146,316.17,297,0.0022442,1.3644,0.72005,1.0089,305.37,1.0574,574.65,1.3863,201.16,208,151,315.92,299,0.17415,0.81821,0.47933,0.81843,200.95,1.0566,516,1.3137,135.99,82,144,94.746,290,0.45181,0.47706,0.55356,0.59543,106.36,0.31688,48.874,0.4043,74.202,37,162,23.706,292,0.97411,1.66,0.56881,0.32551,31.786,0.079285,2.8247,0.097197,68.211,112,149,78.13,291,1.2299,1.304,0.57452,0.28744,24.787,0.26131,33.159,0.33302,47.298,210,146,77.181,298,1.4525,1.5219,0.39607,0.18756,10.554,0.25813,29.626,0.31478,28.535,85,153,23.002,287,1.8407,1.8147,0.46059,0.11995,4.3161,0.076931,2.8431,0.097513,15.639,41,144,6.0898,265,2.3887,2.1846,0.39975,0.063889,1.2245,0.020367,0.18097,0.024602
231.03,148,152,326.17,295,0.0057068,1.3714,0.66469,1.0016,300.96,1.0909,601.91,1.4188,205.13,212,147,327.17,299,0.18919,1.7115,0.37639,0.80382,193.84,1.0942,535.65,1.3385,123.49,77,154,90.148,296,0.55013,1.2341,0.53541,0.53046,84.418,0.3015,47.023,0.39657,67.986,37,151,26.44,272,1.0626,1.2814,0.53287,0.29378,25.892,0.088428,4.3244,0.12026,73.99,119,145,85.221,290,1.1592,1.4007,0.50913,0.29608,26.299,0.28502,39.106,0.36165,55.512,197,152,82.821,296,1.3096,1.8898,0.39453,0.2213,14.693,0.27699,35.541,0.34477,22.066,88,150,17.771,287,2.0662,1.0075,0.5008,0.092515,2.5677,0.059434,1.6865,0.075103,20.614,36,149,7.4683,256,2.0955,0.56833,0.51918,0.089536,2.405,0.024978,0.33273,0.033359
245.1,145,148,351.26,295,0.065774,1.4186,0.69905,1.0885,355.44,1.1748,694.8,1.5244,220.89,201,150,349.52,299,0.077814,0.912,0.56518,0.91472,251.01,1.169,636.58,1.4591,102.59,88,155,84.977,298,0.74824,2.7929,0.43914,0.42195,53.413,0.2842,37.04,0.35196,90.864,37,139,31.745,286,0.84648,1.6285,0.40314,0.3784,42.956,0.10617,5.3406,0.13365,73.006,108,153,80.451,287,1.1527,1.4859,0.69201,0.3076,28.385,0.26907,38.335,0.35806,55.235,188,152,79.966,297,1.3024,2.386,0.45823,0.22289,14.904,0.26744,34.921,0.34175,32.933,76,148,23.166,289,1.6913,1.6767,0.49689,0.14246,6.0882,0.077478,2.8817,0.098172,17.068,33,153,5.681,242,2.2581,1.6416,0.53354,0.074235,1.6532,0.019,0.18965,0.025185
255.74,136,152,344.14,296,0.074578,1.3856,0.59016,1.0972,361.15,1.151,661.83,1.4878,204.97,210,156,331.45,298,0.15252,1.5892,0.45877,0.83757,210.46,1.1085,561.25,1.3701,136.97,86,148,107.65,295,0.47452,1.7529,0.49496,0.57821,100.3,0.36002,63.43,0.46059,65.488,36,154,24.98,288,1.1622,1.4074,0.34754,0.26195,20.585,0.083545,3.2103,0.10362,66.594,104,151,78.003,288,1.2151,1.108,0.57135,0.2798,23.486,0.26088,35.242,0.34331,48.436,210,157,76.488,296,1.4005,1.8617,0.47986,0.19908,11.889,0.25581,31.089,0.32246,30.659,77,153,22.449,287,1.7992,1.7075,0.40759,0.12587,4.7526,0.075079,2.7951,0.096687,14.8,32,152,4.9055,231,2.4092,1.2976,0.47968,0.062335,1.1657,0.016406,0.14358,0.021914
227.89,147,147,306.3,296,0.042659,1.4178,0.56997,0.9615,277.35,1.0244,492.8,1.2838,190.53,205,149,302.95,299,0.24849,2.2466,0.36841,0.75036,168.91,1.0132,448.42,1.2246,124.79,69,147,78.343,297,0.53057,1.415,0.58316,0.542,88.129,0.26202,35.813,0.34609,44.387,31,155,13.003,276,1.4026,1.6259,0.55033,0.19875,11.851,0.04349,0.99226,0.057607,70.408,109,146,85.783,288,1.1807,1.4164,0.58579,0.29413,25.954,0.2869,40.564,0.36833,51.5,222,149,86.182,298,1.377,1.6885,0.41849,0.20454,12.551,0.28824,37.063,0.35208,31.013,85,148,22.285,281,1.7394,1.5015,0.52226,0.13491,5.4601,0.074532,2.7275,0.095509,19.143,39,152,6.5489,259,2.1152,1.5154,0.60856,0.087514,2.2976,0.021903,0.23201,0.027856
234.82,144,150,323.77,298,0.0014671,1.3827,0.57892,1.0046,302.77,1.0828,565.97,1.3758,200.63,204,149,317.88,299,0.20182,1.9764,0.35247,0.79187,188.12,1.0632,514.33,1.3116,92.429,88,145,77.269,295,0.79111,1.014,0.53577,0.4017,48.409,0.25843,33.452,0.33448,85.366,36,142,29.458,292,0.90236,2.2766,0.40902,0.3537,37.531,0.098522,4.3493,0.12061,70.055,118,137,89.991,293,1.1862,1.836,0.49164,0.29256,25.677,0.30097,43.45,0.38121,54.092,213,141,88.38,295,1.3337,1.8888,0.38818,0.21508,13.877,0.29559,39.929,0.36543,27.029,88,149,20.965,288,1.8999,1.4922,0.41877,0.11206,3.7672,0.070117,2.2884,0.087484,14.264,36,146,4.5657,243,2.437,1.4714,0.46903,0.060844,1.1106,0.01527,0.10641,0.018865
228.09,144,147,333.82,295,0.01282,1.3688,0.71444,1.0223,313.56,1.1164,644.98,1.4687,208.45,208,146,332.48,298,0.12262,0.99314,0.45671,0.86833,226.2,1.112,599.53,1.416,102.25,86,154,77.27,291,0.67979,0.81118,0.59484,0.45712,62.687,0.25843,34.675,0.34054,64.774,33,141,19.693,287,1.1524,1.5621,0.39349,0.26533,21.12,0.065864,1.8492,0.078642,63.212,80,139,73.541,280,1.2038,1.0352,0.60719,0.28307,24.039,0.24596,30.269,0.31817,50.079,188,148,73.532,296,1.3653,1.8655,0.48376,0.20749,12.916,0.24593,27.747,0.30463,26.102,75,149,17.976,285,1.9272,1.4874,0.49209,0.10864,3.541,0.06012,1.6616,0.074546,18.225,34,154,5.4448,251,2.2274,1.0846,0.4187,0.076838,1.7712,0.01821,0.14289,0.021861
208.13,138,149,295.64,297,0.053698,0.73128,0.73456,0.94641,268.71,0.98876,539.52,1.3433,203.72,184,146,298.72,298,0.15489,1.388,0.44624,0.83528,209.31,0.99906,504.34,1.2988,101.22,79,143,76.024,298,0.74835,2.1221,0.44251,0.42184,53.384,0.25426,31.837,0.32631,83.818,30,139,21.198,289,0.88719,1.6687,0.42697,0.36023,38.93,0.070898,2.5663,0.092644,59.776,103,144,76.557,275,1.2266,0.8879,0.64321,0.27082,22.003,0.25604,35.304,0.34362,50.239,202,151,76.618,296,1.3691,1.5252,0.47668,0.2065,12.792,0.25625,32.357,0.32896,28.567,82,159,20.089,279,1.8203,1.7176,0.49339,0.12287,4.529,0.067186,2.367,0.088975,20.725,33,152,6.3089,261,2.1167,1.78,0.42836,0.087313,2.287,0.0211,0.20054,0.025898
221.05,133,150,298.73,295,0.022823,1.3799,0.81944,0.9874,292.49,0.99908,556.69,1.3645,201.77,197,150,300.88,297,0.16942,1.775,0.53234,0.82299,203.19,1.0063,504.21,1.2986,128.05,78,143,90.729,297,0.52144,1.7592,0.48328,0.54787,90.049,0.30344,45.038,0.38811,85.568,29,158,24.817,285,0.8517,1.6916,0.55422,0.37448,42.071,0.083,3.612,0.10991,71.647,118,148,86.063,287,1.1425,1.8081,0.59879,0.30291,27.526,0.28784,41.771,0.37377,54.846,206,153,85.593,295,1.3075,1.2797,0.44668,0.22157,14.728,0.28626,37.843,0.35576,29.556,82,156,22.841,288,1.8283,1.5686,0.40676,0.12166,4.4401,0.076392,2.7216,0.095407,17.68,33,153,5.5326,258,2.2637,0.7087,0.43647,0.073912,1.6389,0.018504,0.15465,0.022742
235.15,150,156,329.94,298,0.010286,1.3706,0.66953,0.99548,297.29,1.1035,621.09,1.4413,204.5,207,155,324.86,298,0.17205,2.5797,0.46168,0.81934,201.4,1.0865,566.91,1.377,112.04,86,144,87.081,297,0.61629,1.6991,0.55188,0.49111,72.356,0.29124,44.641,0.38639,91.293,33,156,27.843,290,0.83977,1.4478,0.46641,0.38003,43.326,0.093121,3.9442,0.11485,76.895,123,137,89.481,288,1.107,1.5917,0.54672,0.31654,30.06,0.29927,44.34,0.38509,55.47,215,146,89.119,295,1.2984,1.3663,0.4336,0.22392,15.042,0.29806,40.048,0.36598,33.814,84,152,25.362,292,1.7007,1.5549,0.47805,0.14109,5.9716,0.084822,3.2111,0.10363,22.419,35,151,7.3226,250,2.0408,1.6356,0.46772,0.095363,2.7282,0.02449,0.29821,0.031581
238.2,137,147,339.76,295,0.056776,1.3661,0.89783,1.0763,347.51,1.1363,684.36,1.5129,221,195,139,344.06,299,0.10356,1.9014,0.44796,0.88613,235.57,1.1507,618.58,1.4383,114.09,88,141,95.073,297,0.58778,1.9204,0.67806,0.50747,77.257,0.31797,51.408,0.41465,81.498,36,164,29.309,288,0.92586,1.0358,0.50678,0.34383,35.466,0.098025,4.7849,0.1265,71.01,111,141,87.109,288,1.1485,1.6598,0.59395,0.29956,26.92,0.29133,42.337,0.37629,53.537,212,151,84.952,294,1.3081,1.4889,0.57002,0.22143,14.709,0.28412,38.965,0.36099,26.875,86,141,21.454,287,1.9012,0.85618,0.44323,0.11186,3.7541,0.071752,2.4238,0.090035,24.988,33,144,6.5403,262,1.9038,0.084295,0.60197,0.11386,3.8892,0.021874,0.22153,0.027219
211.3,133,141,305.66,294,0.044323,1.3772,0.70411,0.95793,275.29,1.0223,547.63,1.3533,191.78,206,148,307.32,299,0.22319,0.85238,0.4377,0.77279,179.16,1.0278,483.29,1.2714,116.72,87,141,99.58,297,0.61433,1.7009,0.50542,0.49236,72.724,0.33304,51.489,0.41497,74.692,37,151,27.822,288,0.92242,0.1428,0.70059,0.34542,35.794,0.09305,4.5179,0.12292,68.733,130,145,82.594,287,1.2022,0.72286,0.46736,0.28625,24.582,0.27623,36.908,0.35134,52.804,197,150,81.742,295,1.3607,1.4512,0.3713,0.20843,13.032,0.27339,33.43,0.33438,23.597,89,146,20.287,282,1.9617,2.3637,0.5624,0.10434,3.2659,0.067851,2.4164,0.089898,15.398,39,149,6.0695,259,2.3843,0.98363,0.43707,0.064168,1.2352,0.020299,0.20599,0.026247
63.079,68,139,69.441,275,1.0215,1.6662,1.6149,0.33995,34.67,0.23224,59.902,0.44759,53.918,184,144,74.992,296,1.1139,1.8254,1.0321,0.27714,23.041,0.25081,55.216,0.42973,41.52,76,156,27.09,288,1.3481,0.26841,0.85474,0.21199,13.482,0.090601,5.5135,0.13579,30.54,32,143,9.2517,276,1.7946,1.2785,0.45863,0.12647,4.7983,0.030942,0.41742,0.037364,57.719,72,144,51.398,282,1.4958,1.3658,1.0886,0.23654,16.786,0.1719,17.958,0.24507,33.256,201,148,52.193,294,1.6963,1.75,0.54665,0.14178,6.0307,0.17456,15.782,0.22975,20.204,89,150,16.449,279,2.1106,0.6157,0.55804,0.0879,2.3179,0.055013,1.624,0.073698,22.702,33,155,7.1596,262,1.9823,0.19373,0.65172,0.10221,3.134,0.023945,0.3067,0.032028
73.135,67,132,87.292,281,0.81972,1.3644,1.5362,0.41896,52.658,0.29195,91.272,0.5525,62.289,203,146,94.247,296,0.98179,1.9246,0.94563,0.32249,31.2,0.31521,81.589,0.52237,54.9,75,148,40.595,291,1.1557,0.38351,0.88357,0.26389,20.891,0.13577,10.666,0.18887,30.602,36,149,11.369,280,1.7483,2.6795,0.57118,0.13341,5.3397,0.038024,0.71057,0.048749,53.664,70,137,51.526,284,1.5175,1.3692,1.1378,0.22244,14.844,0.17233,18.127,0.24622,32.219,203,151,52.441,294,1.704,0.87765,0.70641,0.14044,5.917,0.17539,16.28,0.23334,22.569,79,143,16.052,283,1.9871,1.4021,0.79937,0.10166,3.1006,0.053686,1.657,0.074444,13.138,32,153,3.9611,211,2.4553,0.39012,0.57386,0.059108,1.0481,0.013248,0.094281,0.017757
79.367,86,138,106.57,285,0.77235,0.42372,1.111,0.43267,56.16,0.35643,98.694,0.57453,82.877,185,153,113.91,295,0.88038,1.6562,0.53322,0.36282,39.491,0.38097,90.015,0.54868,60.782,72,151,40.967,289,1.1498,1.6718,0.52216,0.26623,21.264,0.13701,9.8918,0.18189,57.717,28,145,15.978,283,1.2742,1.9522,0.32077,0.23094,15.999,0.053438,1.2164,0.063782,50.107,59,135,46.373,277,1.6535,0.11164,1.0294,0.20904,13.109,0.15509,13.384,0.21157,31.176,200,148,46.619,294,1.7762,1.6245,0.58314,0.12929,5.0149,0.15592,12.396,0.20361,15.062,89,153,11.52,282,2.3504,1.6168,0.63017,0.066705,1.3349,0.038527,0.6862,0.047906,13.638,37,149,4.6741,246,2.4532,0.89283,0.52641,0.05926,1.0535,0.015632,0.11158,0.019318
66.48,79,149,79.744,286,1.0673,1.3654,1.055,0.32106,30.924,0.2667,47.548,0.39878,53.277,199,147,81.011,295,1.2589,1.5384,0.59519,0.23456,16.506,0.27094,43.012,0.37928,31.772,89,148,25.827,286,1.6729,1.1012,0.65021,0.14552,6.3526,0.086377,3.9032,0.11426,24.513,38,147,8.2239,265,1.8862,0.41445,0.62575,0.11426,3.9164,0.027505,0.40314,0.036719,51.367,60,142,47.011,287,1.6375,1.4039,1.1617,0.20959,13.179,0.15723,14.623,0.22115,30.749,210,144,47.379,294,1.7519,2.2011,0.67279,0.1329,5.2989,0.15846,13.315,0.21103,15.17,89,147,12.739,275,2.3338,1.5786,0.69985,0.068019,1.388,0.042606,1.0192,0.058385,11.959,39,151,4.4266,229,2.5591,0.71358,0.57597,0.052554,0.82857,0.014805,0.11353,0.019486
79.979,90,140,99.89,282,0.81329,1.3676,1.1207,0.4144,51.518,0.33408,90.237,0.54936,72.399,200,146,106.35,299,0.9522,0.9345,0.60791,0.33365,33.396,0.35568,79.546,0.51579,54.167,81,156,40.977,291,1.2826,1.2492,0.45267,0.22803,15.599,0.13705,9.6997,0.18011,42.553,37,145,14.397,279,1.4885,1.6839,0.456,0.1799,9.7094,0.048151,1.0484,0.059214,55.989,80,141,49.613,284,1.5455,0.47941,0.87843,0.22556,15.263,0.16593,15.474,0.22749,33.421,191,151,49.903,296,1.7204,1.6778,0.4519,0.13779,5.6959,0.1669,14.123,0.21733,22.728,69,147,15.264,281,2.0734,2.2875,0.38078,0.091892,2.5332,0.05105,1.2137,0.063711,14.476,29,148,4.0355,191,2.3905,2.0747,0.54876,0.063935,1.2263,0.013497,0.11289,0.019431
86.38,95,138,118.66,280,0.64945,1.5844,1.1503,0.49492,73.483,0.39685,123.78,0.64342,82.055,199,151,124.46,295,0.84878,0.94518,0.65861,0.37574,42.354,0.41625,109.78,0.60594,69.701,73,150,45.298,287,1.0104,0.6408,0.58659,0.31219,29.239,0.1515,12.061,0.20084,55.04,33,142,15.931,277,1.1939,0.40947,0.59021,0.25255,19.135,0.053282,1.4338,0.069249,51.725,70,143,50.99,282,1.5774,1.3704,0.9641,0.21064,13.311,0.17054,16.878,0.23759,31.797,208,153,50.6,296,1.7282,0.77983,0.56092,0.13655,5.5936,0.16923,15.249,0.22583,19.672,85,148,15.31,285,2.1386,1.9162,0.50998,0.085153,2.1753,0.051203,1.2819,0.065478,14.513,34,152,4.9134,246,2.4419,0.93228,0.4469,0.060031,1.0811,0.016433,0.12573,0.020506
79.716,93,147,102.7,285,0.77243,1.4859,1.061,0.4312,55.779,0.34346,94.974,0.56359,76.586,187,161,109.02,298,0.90233,1.744,0.56093,0.35341,37.469,0.36462,87.322,0.54041,49.915,78,148,36.909,288,1.3037,2.6918,0.61636,0.22254,14.857,0.12344,7.9977,0.16355,51.819,29,157,11.922,268,1.2609,1.0735,0.63555,0.23389,16.412,0.039874,0.80873,0.052008,61.518,92,138,68.437,285,1.3035,2.0822,1.0043,0.26477,21.03,0.22889,31.398,0.32405,44.662,200,142,69.829,299,1.4413,1.8254,0.56651,0.19013,10.845,0.23354,28.76,0.31014,22.368,92,153,18.1,278,2.0121,1.68,0.51006,0.098793,2.928,0.060536,1.8065,0.07773,17.872,38,152,6.5407,254,2.2081,1.7936,0.51396,0.078601,1.8535,0.021875,0.25811,0.029381
93.665,82,141,131.1,286,0.5846,0.49354,1.0464,0.53561,86.062,0.43847,154.29,0.71835,97.9,184,155,140.88,296,0.71913,1.3724,0.51668,0.4368,57.239,0.47118,138.69,0.68105,67.655,85,149,51.265,287,1.0519,1.5584,0.55636,0.2974,26.533,0.17146,14.576,0.22079,43.912,37,143,15.328,283,1.479,2.2384,0.39905,0.18189,9.9247,0.051265,1.2359,0.064292,55.172,70,145,55.224,281,1.4384,1.3797,1.2492,0.23811,17.009,0.1847,21.635,0.26899,35.841,202,149,56.917,295,1.6181,0.58816,0.8291,0.15498,7.2054,0.19036,19.203,0.25342,25.077,83,154,19.202,287,1.871,1.6026,0.7427,0.11582,4.024,0.06422,2.255,0.086844,15.945,38,148,5.7123,259,2.3125,0.48704,0.63959,0.069719,1.4582,0.019105,0.17654,0.024299
95.358,95,145,142.22,290,0.45676,1.4258,1.3725,0.59941,107.79,0.47566,211.27,0.84058,97.775,200,147,154.04,296,0.6297,0.4389,0.85138,0.48416,70.324,0.51517,186.52,0.78982,78.956,86,154,60.856,294,0.89708,1.2707,0.62806,0.35541,37.895,0.20353,21.229,0.26646,59.402,32,151,17.895,293,1.1868,1.1325,0.5357,0.25598,19.657,0.05985,1.6513,0.074315,61.047,91,149,68.437,288,1.2963,1.6904,0.91227,0.26415,20.932,0.22889,32.482,0.3296,43.075,201,148,69.122,293,1.4503,0.92368,0.61309,0.18799,10.602,0.23118,29.559,0.31442,28.348,81,154,20.307,283,1.8253,1.6519,0.51748,0.12208,4.471,0.067916,2.2998,0.087703,14.431,35,157,4.4612,202,2.3575,1.4155,0.62349,0.066352,1.3208,0.014921,0.12076,0.020097
107.42,95,147,154.03,286,0.43923,1.3728,1.2229,0.62038,115.46,0.51515,214.67,0.84733,114.99,183,155,163.53,299,0.56036,1.5104,0.70605,0.52411,82.408,0.54693,194.41,0.80635,84.071,75,148,58.193,291,0.83588,1.7562,0.61799,0.38137,43.633,0.19462,20.304,0.26059,67.099,33,149,20.475,290,1.1192,1.6546,0.37991,0.27523,22.725,0.068479,1.9395,0.08054,64.506,88,148,76.855,284,1.1135,0.12477,1.3158,0.30979,28.791,0.25704,43.751,0.38253,53.075,201,147,77.457,296,1.2589,1.5807,0.74709,0.23447,16.493,0.25905,39.071,0.36149,33.74,87,156,25.887,287,1.6142,1.7719,0.75582,0.1559,7.2919,0.086578,4.1362,0.11762,26.432,36,156,8.2295,266,1.8944,1.5161,0.50458,0.11284,3.8199,0.027524,0.35614,0.034512
114.19,107,141,158.85,294,0.40972,1.4204,0.99736,0.6395,122.69,0.53127,202.02,0.82197,115.35,184,137,164.45,298,0.57353,0.81028,0.57394,0.51608,79.902,0.55001,183.27,0.7829,73.431,79,149,53.328,293,0.99384,1.5294,0.58506,0.31837,30.407,0.17836,15.274,0.22602,69.241,33,147,21.682,288,1.0234,1.2186,0.59922,0.30737,28.344,0.072514,3.0962,0.10176,65.461,85,143,72.799,288,1.2487,1.9038,0.96035,0.28434,24.254,0.24348,34.259,0.33849,48.237,206,147,73.606,294,1.3948,0.96246,0.50706,0.20041,12.05,0.24617,30.722,0.32055,29.999,84,139,23.246,286,1.7651,1.1577,0.56589,0.13099,5.1476,0.077744,3.0259,0.1006,25.459,38,151,8.7757,272,1.9178,1.7074,0.51025,0.10981,3.6178,0.02935,0.41011,0.037035
91.108,112,143,129.68,285,0.65735,1.8905,1.0654,0.4868,71.093,0.4337,133.03,0.66703,88.239,200,159,136.54,296,0.82048,1.1924,0.59443,0.3882,45.21,0.45664,117.4,0.62662,69.56,84,155,53.99,294,1.0016,0.88598,0.62816,0.31513,29.792,0.18057,17.642,0.24291,30.723,40,149,11.411,272,1.7532,1.3308,0.53788,0.13283,5.2935,0.038164,0.71893,0.049035,66.831,89,137,75.656,288,1.134,1.3647,1.09,0.30308,27.557,0.25303,41.136,0.37092,49.28,197,149,75.539,297,1.3288,1.0301,0.58604,0.21632,14.038,0.25264,36.09,0.34742,35.21,83,152,25.975,288,1.6234,1.8822,0.5423,0.15402,7.1167,0.086873,3.8658,0.11371,26.339,35,144,8.0916,268,1.8935,1.7178,0.50443,0.11355,3.868,0.027062,0.32487,0.032962
91.72,113,144,127.84,283,0.66942,1.721,1.0228,0.485,70.569,0.42756,125.7,0.64838,85.393,202,144,131.45,296,0.84261,1.8685,0.58271,0.37842,42.96,0.43964,110.89,0.60899,60.641,85,153,44.537,293,1.1629,0.79302,0.49008,0.26272,20.706,0.14895,11.248,0.19395,50.56,35,150,16.409,289,1.3491,1.7824,0.4444,0.21124,13.387,0.054878,1.3781,0.06789,71.051,96,141,86.675,290,1.1105,0.73147,0.95814,0.3187,30.471,0.28988,51.513,0.41507,56.361,198,147,88.763,297,1.2365,1.5955,0.56227,0.24062,17.369,0.29687,47.849,0.40004,31.626,84,148,25.104,288,1.7243,2.2284,0.58951,0.13713,5.6415,0.08396,3.6366,0.11028,23.73,32,150,7.6437,273,2.0166,0.72103,0.44727,0.098074,2.8855,0.025564,0.2879,0.03103
106.16,100,151,147.65,295,0.5545,1.3668,0.91888,0.53986,87.436,0.49383,151.54,0.71191,96.02,200,150,149.43,297,0.76427,0.89051,0.52472,0.41415,51.455,0.49977,133.83,0.66903,71.397,83,147,54.875,295,1.0424,1.5866,0.47556,0.3007,27.126,0.18353,15.773,0.22968,49.052,37,148,18.199,289,1.3535,1.5604,0.55746,0.2102,13.255,0.060865,1.7523,0.076554,64.867,93,149,77.875,291,1.1329,1.3699,1.3146,0.30754,28.374,0.26045,42.649,0.37768,53.654,198,147,78.644,296,1.2518,0.61926,0.75882,0.23682,16.825,0.26302,39.539,0.36365,32.293,73,144,22.539,286,1.7162,1.5922,0.53468,0.13863,5.7651,0.075381,2.7029,0.095077,31.512,32,154,9.1141,254,1.6916,1.1359,0.62798,0.14339,6.1686,0.030482,0.55005,0.042891
120.61,113,139,172.09,289,0.43982,0.7724,0.84766,0.62825,118.41,0.57554,205.72,0.82947,114.44,200,147,172.46,295,0.61642,1.4575,0.48291,0.491,72.323,0.57678,184.53,0.7856,81.747,77,140,58.999,291,0.92681,1.6807,0.47057,0.34346,35.389,0.19732,18.927,0.2516,53.578,32,156,16.653,285,1.2679,1.3768,0.60861,0.23391,16.414,0.055696,1.4146,0.068783,58.22,81,143,66.295,283,1.3199,1.3644,1.0325,0.2556,19.6,0.22172,30.537,0.31958,42.729,204,161,67.474,293,1.4719,2.7997,0.58507,0.1834,10.091,0.22567,27.283,0.30207,26.849,83,148,21.233,280,1.833,0.70362,0.65641,0.12101,4.3929,0.071014,2.8004,0.096777,19.745,41,153,7.073,245,2.0622,0.61119,0.61901,0.092963,2.5926,0.023655,0.30038,0.031696
134.64,110,147,206.33,296,0.30962,1.3645,0.93887,0.70962,151.07,0.69008,300.85,1.0031,136.56,197,146,207.65,298,0.44879,0.90958,0.58977,0.59621,106.64,0.69449,270.19,0.9506,101.13,73,148,70.726,294,0.75012,1.5951,0.44801,0.4216,53.323,0.23654,27.778,0.3048,69.273,31,156,22.183,283,1.0974,0.99601,0.44654,0.28225,23.899,0.074189,2.6271,0.093736,67.381,88,141,80.936,280,1.0301,1.3826,1.2231,0.33295,33.256,0.27069,56.115,0.43322,55.044,193,150,83.998,294,1.1967,1.4234,0.69493,0.25173,19.01,0.28093,50.336,0.4103,40.475,76,147,28.362,290,1.4828,1.6198,0.59892,0.18118,9.8479,0.094856,4.9495,0.12866,26.948,34,149,8.9202,270,1.8685,1.819,0.494,0.11638,4.0631,0.029833,0.42737,0.037806
147.87,120,156,232.22,296,0.20405,1.3648,0.99115,0.79876,191.41,0.77665,371.68,1.1149,143.88,216,155,235.49,297,0.42174,2.738,0.6591,0.61473,113.37,0.78759,317.66,1.0307,113.39,84,152,88.237,295,0.59982,0.67957,0.63936,0.50145,75.434,0.29511,44.031,0.38375,62.344,35,150,21.756,285,1.125,0.25136,0.58599,0.2743,22.572,0.072764,2.6946,0.094931,68.62,84,145,79.202,288,1.1316,1.3832,0.99298,0.30871,28.59,0.26489,44.346,0.38512,53.874,197,154,79.364,292,1.2563,1.6848,0.578,0.23504,16.573,0.26543,40.257,0.36693,29.693,87,146,22.077,286,1.7261,1.4356,0.63857,0.13685,5.6183,0.073837,2.7997,0.096766,29.428,28,144,8.4348,264,1.8537,1.3313,0.39238,0.11837,4.2034,0.02821,0.37835,0.035572
141.87,115,150,205.29,295,0.29568,1.4228,0.82453,0.73035,160.03,0.68658,298.71,0.99952,138.25,202,147,212.05,299,0.46593,1.0486,0.46946,0.58407,102.34,0.70921,265.64,0.94256,103.73,81,144,76.809,294,0.69747,1.7194,0.51972,0.44731,60.026,0.25688,32.243,0.32839,61.616,37,143,20.527,287,1.1761,1.6464,0.49821,0.25862,20.066,0.068653,2.0973,0.083752,71.74,102,146,86.905,291,1.0841,1.3672,0.89494,0.31859,30.449,0.29065,49.016,0.40489,57.394,201,146,87.6,298,1.2401,1.1977,0.51806,0.2395,17.208,0.29298,45.307,0.38927,36.952,77,148,24.397,289,1.5651,1.0628,0.56955,0.16472,8.1395,0.081597,3.296,0.10499,25.868,30,140,6.3933,247,1.8521,1.8611,0.55799,0.11929,4.2692,0.021382,0.24181,0.028438
150.52,133,152,225.41,293,0.2421,1.3928,0.7721,0.76406,175.13,0.75388,335.83,1.0598,158.86,192,153,226.66,299,0.34784,1.5231,0.61288,0.66889,134.23,0.75805,300.59,1.0027,105.66,77,147,75.673,291,0.70954,1.1888,0.45166,0.44141,58.452,0.25309,30.44,0.31907,70.61,31,150,21.482,284,1.0868,1.873,0.3585,0.28569,24.486,0.071846,2.3325,0.088324,78.492,102,152,92.925,293,0.97565,1.3677,0.90776,0.35672,38.175,0.31079,58.053,0.44063,63.427,183,142,93.02,297,1.1433,0.82728,0.5972,0.26803,21.552,0.3111,52.333,0.41836,47.079,73,147,30.655,289,1.3918,1.9053,0.52176,0.20108,12.131,0.10252,4.9326,0.12844,27.346,34,149,8.8247,260,1.859,2.2163,0.48933,0.11756,4.146,0.029514,0.43079,0.037957
137.4,129,149,216.81,292,0.29873,1.5162,0.99369,0.7232,156.9,0.72513,318.73,1.0325,135.81,207,148,217.9,299,0.46695,1.203,0.58665,0.58325,102.05,0.72876,280.05,0.9678,87.871,91,151,75.409,298,0.85488,1.9031,0.49719,0.37332,41.809,0.2522,30.89,0.32142,73.793,33,149,22.227,284,1.0579,1.5769,0.36441,0.29534,26.168,0.074339,2.3999,0.089591,68.589,111,141,84.15,290,1.1443,1.9841,0.74122,0.30358,27.649,0.28144,43.347,0.38075,53.374,207,148,84.864,295,1.3075,1.7995,0.45837,0.22174,14.751,0.28383,39.11,0.36167,37.611,77,148,26.64,291,1.5913,0.95653,0.4623,0.15989,7.669,0.089097,3.8323,0.11321,19.498,33,145,6.1375,257,2.1867,2.1388,0.39385,0.080695,1.9535,0.020527,0.18104,0.024606
172.77,130,148,271.26,293,0.064681,1.3647,1.072,0.93955,264.83,0.90723,531.49,1.3332,192.43,197,157,281.81,296,0.1787,0.78685,0.58414,0.81415,198.85,0.94252,490.71,1.2811,134.37,75,145,90.549,296,0.46928,0.68811,0.57705,0.58161,101.48,0.30284,45.519,0.39018,75.848,30,138,23.981,289,1.0335,1.6552,0.36681,0.304,27.726,0.080204,2.9695,0.099657,90.763,113,142,113.46,289,0.83503,1.454,0.75599,0.4113,50.751,0.37946,80.472,0.51878,74.074,202,147,113.64,296,1.041,1.9482,0.44159,0.30114,27.206,0.38007,69.774,0.48307,43.04,86,148,34.441,287,1.4349,2.1747,0.57885,0.1914,10.99,0.11519,6.3573,0.14581,35.273,35,150,11.914,276,1.6298,1.0126,0.61204,0.1529,7.0139,0.039847,0.74374,0.049874
160.03,134,146,251.4,296,0.18857,1.3759,0.89477,0.8161,199.81,0.84079,383.21,1.1321,161.05,207,145,252.67,298,0.35232,2.0933,0.58067,0.66547,132.85,0.84503,336.62,1.061,122.81,77,151,87.461,295,0.58489,1.1675,0.4505,0.50926,77.803,0.29251,40.817,0.36947,57.8,36,146,17.02,281,1.157,0.27571,0.58488,0.26353,20.835,0.056922,1.626,0.073744,83.144,124,145,106.27,292,0.96429,1.3795,0.66243,0.35117,36.997,0.3554,66.322,0.47097,69.088,199,146,105.56,298,1.1011,1.3217,0.44122,0.28165,23.797,0.35303,60.161,0.44856,34.6,86,152,27.185,287,1.6354,1.7524,0.53245,0.15208,6.9383,0.09092,4.2665,0.11945,19.33,42,148,6.6915,256,2.1399,2.0301,0.49355,0.085053,2.1702,0.02238,0.24756,0.028774
158.24,135,146,238.98,294,0.20459,1.3654,0.88963,0.79483,189.53,0.79925,361.81,1.1,157.89,199,144,239.2,299,0.35608,1.2188,0.50506,0.66309,131.91,0.79999,329.42,1.0496,98.999,76,150,67.141,297,0.71847,0.43697,0.53557,0.43858,57.705,0.22455,25.9,0.29431,65.493,35,149,21.469,287,1.0678,0.96147,0.62087,0.29231,25.634,0.071802,2.8936,0.098374,77.554,101,153,96.47,291,0.99056,1.3863,0.82256,0.34584,35.882,0.32264,58.889,0.44379,65.698,193,149,95.799,292,1.1282,1.1813,0.44769,0.27254,22.283,0.3204,53.579,0.42331,36.348,81,141,26.361,290,1.5952,1.3774,0.57181,0.15911,7.5948,0.088162,3.9732,0.11528,28.708,35,146,9.5522,270,1.7955,1.1448,0.52334,0.12691,4.8318,0.031947,0.56735,0.04356
179.46,142,137,266.06,294,0.069478,1.3646,1.0073,0.92874,258.77,0.88983,459.17,1.2392,181.1,198,151,267.6,299,0.21319,0.70483,0.6268,0.78107,183.02,0.89497,411.65,1.1734,117.35,78,152,84.493,296,0.61368,1.6181,0.48769,0.49269,72.823,0.28258,38.003,0.35651,96.929,32,144,28.929,294,0.81344,2.3781,0.43651,0.39338,46.425,0.096752,3.865,0.11369,88.951,113,141,110.58,287,0.87023,1.4197,0.77062,0.40014,48.034,0.36982,76.311,0.50519,72.073,197,140,110.13,296,1.0341,1.8455,0.5196,0.30368,27.667,0.36834,69.523,0.4822,42.03,84,148,31.356,289,1.4513,0.90495,0.56485,0.18795,10.598,0.10487,5.4236,0.13468,28.595,32,138,8.828,261,1.8382,2.928,0.4725,0.12069,4.3701,0.029525,0.41387,0.037205
183.79,125,151,277.08,296,0.096033,1.5243,0.8557,0.91447,250.88,0.92667,496.19,1.2882,181.42,199,150,281.59,299,0.25206,1.843,0.46942,0.7473,167.54,0.94178,433.66,1.2043,115.14,85,148,98.485,294,0.59465,1.1264,0.52862,0.50353,76.063,0.32938,57.751,0.43948,64.126,38,152,20.374,280,1.0887,1.7162,0.52684,0.28752,24.801,0.06814,2.3363,0.088394,87.058,99,136,107.18,289,0.87449,1.6374,0.78603,0.39661,47.19,0.35847,71.659,0.48955,71.196,198,143,105.76,298,1.0059,2.5049,0.59333,0.31382,29.545,0.3537,66.849,0.47284,41.972,77,146,30.228,291,1.4899,0.9,0.49419,0.1796,9.6773,0.1011,5.03,0.1297,33.999,26,151,8.889,274,1.6997,2.3783,0.47506,0.14184,6.0357,0.029729,0.41662,0.037328
195.87,130,150,291.61,295,0.011061,1.3677,1.1025,1.0228,313.86,0.97529,611.62,1.4302,205.1,196,151,299.25,297,0.031559,0.0063449,0.90853,0.9634,278.44,1.0008,565.72,1.3755,133.29,76,149,96.043,294,0.36633,1.3962,0.98015,0.6548,128.63,0.32122,60.473,0.44972,82.125,33,155,26.663,291,0.96833,1.1765,0.39309,0.32771,32.219,0.089172,3.3734,0.10622,92.902,112,145,124.32,292,0.77723,0.41118,0.90272,0.43455,56.649,0.4158,100.09,0.57858,76.48,212,153,124.15,294,0.98154,1.3893,0.5202,0.32258,31.218,0.41523,89.249,0.54634,49.408,83,155,37.381,288,1.3335,1.6922,0.53607,0.21505,13.874,0.12502,8.2982,0.16659,39.948,32,151,11.182,277,1.5521,2.1682,0.39861,0.16729,8.396,0.037399,0.62058,0.045558
166.73,138,146,243.9,297,0.2263,1.4985,0.66036,0.77478,180.09,0.81571,331.35,1.0527,160.07,193,153,247.19,299,0.38915,1.8632,0.42323,0.63784,122.05,0.82673,307.9,1.0148,89.956,77,148,64.117,295,0.86854,1.7469,0.41098,0.36776,40.574,0.21444,20.798,0.26374,60.764,28,149,16.189,284,1.1933,1.8147,0.44888,0.25381,19.326,0.054143,1.4532,0.069715,97.502,120,151,132.9,292,0.7169,1.5689,0.80769,0.45736,62.754,0.44447,121.24,0.63679,88.134,195,152,135.52,299,0.82535,1.6451,0.58278,0.38606,44.713,0.45325,113.92,0.61726,52.346,86,151,40.381,294,1.2687,1.6315,0.58791,0.23172,16.108,0.13505,9.2248,0.17565,36.967,35,154,12.863,274,1.6108,1.475,0.42927,0.15627,7.326,0.043021,0.88268,0.054333
204.21,142,156,310.46,296,0.057192,1.5696,0.70199,0.9515,271.61,1.0383,585.39,1.3992,200.51,200,156,309.29,298,0.17398,1.0909,0.44173,0.81775,200.61,1.0344,540.26,1.3442,95.947,83,147,73.123,293,0.73602,1.7807,0.59929,0.42786,54.92,0.24456,32.269,0.32852,75.332,32,162,21.082,276,0.8196,1.3812,0.93885,0.38868,45.321,0.070508,2.6545,0.094223,99.385,113,154,132.33,289,0.69351,1.3685,1.0184,0.47493,67.669,0.44259,120.71,0.63537,82.601,207,152,132.21,298,0.86526,0.75529,0.6411,0.36914,40.88,0.44218,109.92,0.60633,51.323,81,145,38.739,291,1.289,0.69276,0.52768,0.2264,15.377,0.12956,8.529,0.16889,36.822,35,153,11.943,270,1.566,1.3125,0.54391,0.16494,8.1614,0.039943,0.82549,0.052544
203.52,140,141,285.31,296,0.028038,1.3691,0.81956,0.97844,287.2,0.95422,520.61,1.3195,188.8,206,147,291.52,299,0.19027,1.2531,0.53234,0.80194,192.93,0.97499,467.52,1.2504,138.45,77,145,98.253,295,0.45439,1.5447,0.50405,0.59175,105.05,0.32861,52.047,0.41722,82.908,33,149,24.852,286,0.91051,1.0627,0.40149,0.35009,36.769,0.083116,3.1329,0.10236,106.88,129,149,142.44,297,0.64847,0.080581,0.95431,0.49591,73.777,0.47637,123.7,0.64319,92.139,210,148,140.9,297,0.84209,1.8305,0.52997,0.37868,43.02,0.47123,109.41,0.60492,58.058,87,149,42.397,291,1.1863,0.64922,0.6395,0.25652,19.74,0.1418,10.548,0.18783,41.567,32,148,12.826,280,1.4929,1.5341,0.455,0.179,9.6121,0.042897,0.93405,0.055892
220.69,152,142,327.7,294,0.060924,1.3801,0.81842,1.0771,348.02,1.096,651.64,1.4763,204.95,204,140,317.14,297,0.12818,1.1911,0.59984,0.86151,222.66,1.0607,568.56,1.379,122.62,86,147,100.71,299,0.59633,1.961,0.4266,0.50251,75.754,0.33683,51.81,0.41627,107.08,31,148,28.575,281,0.72005,0.55304,0.43929,0.44268,58.791,0.095567,4.8855,0.12783,94.82,126,139,128.58,289,0.77387,1.536,0.76183,0.43142,55.837,0.43005,102.17,0.58456,79.393,214,152,127.98,298,0.96914,1.1503,0.51751,0.3272,32.118,0.42801,91.458,0.55307,52.843,85,150,39.088,290,1.2416,1.4693,0.54079,0.23904,17.142,0.13073,9.2577,0.17596,24.521,38,155,8.1731,266,1.9848,1.9785,0.36043,0.10161,3.0975,0.027335,0.3285,0.033146
206.41,131,154,289.29,296,0.091579,1.4254,0.56944,0.90737,247,0.96753,468.39,1.2516,184.51,201,150,291.33,298,0.25957,1.3089,0.42254,0.74155,164.97,0.97436,433.35,1.2039,106.2,77,140,73.872,296,0.70118,1.3802,0.44457,0.44546,59.53,0.24706,29.048,0.31169,82.294,30,139,23.815,287,0.9137,0.81182,0.49237,0.34874,36.487,0.079647,2.8993,0.098472,109.24,125,157,148.74,295,0.65103,1.5058,0.7056,0.48834,71.543,0.49744,125.22,0.64715,93.223,201,162,146.04,299,0.82224,1.5274,0.54828,0.38748,45.042,0.48842,115.48,0.62148,50.678,80,153,36.732,293,1.3069,0.97031,0.51351,0.22217,14.808,0.12285,7.4077,0.1574,28.595,34,152,8.8982,267,1.8437,1.6506,0.46985,0.11971,4.2989,0.02976,0.40117,0.036629
215.83,135,145,303.14,295,0.040347,1.8054,0.6022,0.96159,277.4,1.0138,511,1.3073,201.09,202,142,304.95,299,0.19517,2.0507,0.4022,0.79893,191.49,1.0199,458.79,1.2387,108.5,87,149,85.838,296,0.62049,1.7119,0.62211,0.4893,71.825,0.28708,43.918,0.38325,78.228,35,152,20.989,280,0.86383,1.3929,0.59876,0.37008,41.089,0.070197,2.7659,0.096179,111.1,128,148,147.51,292,0.64851,1.6888,0.71609,0.50132,75.397,0.49335,126.54,0.65055,91.598,212,154,146.62,297,0.85795,1.6146,0.43557,0.37182,41.476,0.49038,112.6,0.61368,59.091,81,156,43.304,293,1.2121,2.208,0.46571,0.24743,18.367,0.14483,9.9305,0.18224,45.265,28,139,12.797,271,1.4918,1.7282,0.33382,0.18066,9.7914,0.042801,0.91225,0.055236
237.71,149,147,360.75,297,0.074235,1.3657,0.76685,1.1052,366.44,1.2065,770.76,1.6055,232.02,208,154,357.89,297,0.037849,1.5084,0.49625,0.95688,274.69,1.197,682.66,1.511,136.94,91,148,111.8,298,0.44374,0.7832,0.66181,0.59909,107.67,0.37392,66.22,0.47061,83.44,41,144,31.987,292,0.93108,0.74655,0.43086,0.34192,35.074,0.10698,4.8035,0.12675,109.16,132,151,146.72,294,0.67718,1.3701,0.85759,0.48125,69.48,0.4907,129.37,0.65778,99.494,197,153,146.28,298,0.77012,1.3502,0.58338,0.41137,50.769,0.48924,121.2,0.63666,53.03,77,148,36.381,291,1.2849,1.4592,0.56341,0.22753,15.531,0.12167,6.7094,0.1498,35.865,28,142,10.337,271,1.6262,2.1134,0.53421,0.15353,7.0716,0.034573,0.58086,0.044076
254.18,126,141,365.57,295,0.15185,1.7547,0.68124,1.1931,427.03,1.2226,807.99,1.6439,226.52,195,146,363.24,298,0.069485,1.3651,0.44013,0.92171,254.86,1.2148,717.06,1.5486,144.32,79,147,107.23,297,0.39124,1.5629,0.5566,0.63633,121.47,0.35862,68.094,0.47722,101.66,32,153,30.019,291,0.72948,1.4512,0.51169,0.4313,55.805,0.1004,4.2038,0.11857,103.45,152,148,152.92,288,0.67041,0.15964,0.79289,0.48495,70.552,0.51143,138.2,0.67987,93.871,216,151,152.2,299,0.79477,1.7008,0.5945,0.40004,48.01,0.50904,127.4,0.65276,45.764,85,144,37.35,293,1.4167,0.53253,0.49645,0.19544,11.46,0.12492,7.4822,0.15819,27.654,39,158,9.3871,274,1.8202,1.9918,0.61909,0.12324,4.5567,0.031395,0.53559,0.042323
237.31,137,142,347.77,295,0.071552,1.3644,0.77414,1.0944,359.32,1.1631,676.19,1.5038,217.42,212,143,346,298,0.096592,1.4928,0.4743,0.89598,240.83,1.1572,616.17,1.4355,140.06,82,140,104.52,299,0.4624,1.4297,0.48048,0.58644,103.18,0.34956,54.061,0.42521,90.591,27,148,24.163,269,0.79759,0.83977,0.45414,0.39899,47.758,0.080814,3.4161,0.10689,104.29,125,144,140.11,292,0.64977,1.4409,0.82047,0.48971,71.944,0.46861,126.74,0.65106,93.258,196,147,141.39,297,0.8191,1.0904,0.47063,0.38883,45.358,0.47287,110.69,0.60845,60.569,80,150,46.82,293,1.1712,1.714,0.48858,0.25922,20.159,0.15659,12.71,0.20618,42.899,30,148,12.817,284,1.4944,2.4852,0.42546,0.17867,9.5773,0.042868,0.89352,0.054666
248.71,174,139,387.62,297,0.077752,1.4449,0.63624,1.1047,366.1,1.2964,796.89,1.6325,232.32,217,140,385.22,297,0.069686,1.4624,0.40202,0.92149,254.74,1.2884,729.27,1.5617,114.52,91,152,95.798,297,0.61101,1.699,0.49781,0.49406,73.229,0.3204,48.786,0.40394,90.711,39,150,32.007,288,0.81177,1.6095,0.4857,0.39317,46.375,0.10705,5.5315,0.13602,107.7,140,150,144.73,294,0.66069,1.4083,0.72983,0.4862,70.918,0.48405,120.95,0.63602,91.483,200,148,142.67,298,0.83597,2.3873,0.51202,0.38134,43.626,0.47715,109.19,0.60431,57.609,79,146,41.057,293,1.2224,1.8492,0.49296,0.2446,17.948,0.13731,8.4972,0.16858,34.731,32,150,10.003,274,1.6635,1.5851,0.43899,0.14709,6.4906,0.033454,0.49553,0.04071
258.31,142,152,373.22,296,0.16178,1.402,0.84823,1.2096,438.94,1.2482,814.74,1.6507,249.08,200,152,374.81,299,0.015139,1.4833,0.51824,1.0165,309.97,1.2535,741.09,1.5743,144.01,82,145,107.69,298,0.38382,1.5396,0.55899,0.6418,123.57,0.36018,65.892,0.46944,116.04,33,131,38.028,296,0.6673,2.3361,0.34154,0.4634,64.421,0.12718,6.9415,0.15237,116.39,148,142,170.26,295,0.59699,1.5668,0.68552,0.51903,80.818,0.56945,152.93,0.71518,104.51,212,146,166.48,299,0.7402,1.8174,0.46799,0.42645,54.559,0.55678,140.95,0.68659,48.396,87,151,37.301,293,1.3513,1.5533,0.57308,0.21069,13.317,0.12475,7.3329,0.1566,49.039,35,150,14.152,269,1.3171,0.66015,0.53926,0.22204,14.79,0.047331,1.2062,0.063516
248.54,139,150,343.18,297,0.050265,1.3895,0.58648,1.0675,341.88,1.1477,638.14,1.4609,209.83,212,155,334.76,299,0.15023,1.0991,0.40448,0.84003,211.7,1.1196,561.14,1.3699,131.45,86,138,104.6,295,0.51433,2.0615,0.45217,0.55222,91.485,0.34984,59.223,0.44505,81.236,37,148,28.138,292,0.9315,1.5882,0.44385,0.34163,35.012,0.094106,4.1356,0.11761,115.6,134,147,155.37,292,0.62856,1.9896,0.6006,0.50363,76.094,0.51962,137.34,0.67773,95.369,219,154,154.94,297,0.83744,2.0621,0.4197,0.38082,43.508,0.51819,121.43,0.63727,55.568,86,149,44.824,297,1.2446,1.5577,0.57357,0.23823,17.026,0.14991,10.888,0.19083,29.451,36,151,10.924,265,1.7993,1.7914,0.47946,0.12579,4.7469,0.036534,0.62366,0.045671
221.56,141,142,308.31,295,0.034267,1.5965,0.56286,0.96882,281.59,1.0312,540.71,1.3448,192.63,207,146,310.22,299,0.20507,1.0767,0.48288,0.78842,186.48,1.0375,494.93,1.2866,118.73,79,154,87.601,296,0.62739,1.6365,0.39326,0.48494,70.55,0.29298,38.2,0.35744,58.664,34,143,20.369,287,1.2183,3.348,0.45781,0.2457,18.11,0.068124,2.2354,0.086465,120.94,129,141,162.38,295,0.4693,0.11316,1.2169,0.59874,107.55,0.54308,179,0.77373,105.43,193,146,160.74,297,0.66373,1.7264,0.68746,0.46533,64.96,0.53759,158.22,0.72744,68.445,78,152,51.068,290,0.99304,2.7593,0.87216,0.31824,30.384,0.1708,16.629,0.23583,37.414,37,152,13.319,282,1.5463,1.7655,0.61033,0.16856,8.5238,0.044546,1.064,0.059654
248.92,146,156,351.11,299,0.078316,1.3653,0.78997,1.1028,364.83,1.1743,699.33,1.5293,217.22,207,153,344.4,298,0.10236,2.8499,0.49414,0.88799,236.56,1.1518,645.85,1.4697,112.27,84,153,82.821,296,0.6543,1.7278,0.44562,0.47041,66.385,0.27699,34.618,0.34026,67.496,37,147,25.451,291,1.1003,0.5077,0.54525,0.28134,23.746,0.085122,3.4372,0.10722,129.27,150,153,183.07,296,0.52804,1.4437,0.64642,0.55936,93.865,0.61227,184.56,0.78567,117.46,207,153,182.16,298,0.65845,2.1292,0.40738,0.46792,65.684,0.60923,168.62,0.75097,60.339,85,155,48.892,294,1.1734,1.5686,0.61385,0.25859,20.061,0.16352,13.269,0.21066,41.054,39,153,15.492,286,1.5614,1.8692,0.3771,0.16542,8.2092,0.051811,1.1799,0.062819
255.24,143,151,365.03,295,0.081987,1.3961,0.63862,1.1026,364.71,1.2208,723.39,1.5554,230.63,195,159,359.63,298,0.060835,0.81342,0.43761,0.93082,259.93,1.2028,672.32,1.4995,115.8,83,154,81.583,293,0.61848,2.22,0.43652,0.48982,71.976,0.27285,35.112,0.34268,74.974,31,147,22.165,289,1.0241,0.87872,0.43504,0.30827,28.508,0.074131,2.6447,0.094049,116.58,139,144,161.11,289,0.64341,1.63,0.56764,0.50195,75.585,0.53882,140.77,0.68616,98.348,208,145,160.44,298,0.80561,1.8283,0.42236,0.39497,46.8,0.5366,127.42,0.6528,50.693,87,144,42.997,291,1.3638,1.1725,0.38789,0.20782,12.957,0.1438,9.3595,0.17693,40.939,34,150,13.528,271,1.5405,1.2817,0.4387,0.16959,8.628,0.045246,1.035,0.058836
246.59,158,151,364.39,299,0.080502,1.3689,0.79716,1.1083,368.47,1.2187,730.21,1.5627,226.74,200,145,363.21,298,0.069899,1.7024,0.46893,0.92114,254.55,1.2148,671.24,1.4983,105.83,92,149,85.217,296,0.6623,1.5906,0.68211,0.46575,65.077,0.28501,42.305,0.37615,110.46,32,145,33.844,293,0.69026,0.82231,0.39772,0.4511,61.047,0.11319,5.5134,0.13579,121.64,142,141,171.16,296,0.52513,1.5246,0.78789,0.5583,93.511,0.57243,168.27,0.75018,110.77,194,138,169.73,298,0.69234,1.6644,0.4221,0.45014,60.789,0.56765,153.88,0.7174,62.961,83,147,43.227,292,1.1113,1.6115,0.50744,0.27785,23.16,0.14457,10.305,0.18564,49.02,29,159,13.975,278,1.3315,2.2309,0.57374,0.21556,13.94,0.046741,1.1107,0.060949
249.37,132,151,321.93,296,0.025619,1.7206,0.5091,1.044,327.01,1.0767,555.37,1.3629,209.91,185,160,316.2,298,0.15064,2.1702,0.39867,0.83942,211.39,1.0575,510.6,1.3068,106.69,83,146,79.325,294,0.67811,2.0023,0.49992,0.45732,62.743,0.2653,31.858,0.32642,77.078,33,147,21.911,289,0.95278,1.492,0.52027,0.33481,33.629,0.07328,2.3434,0.08853,115.66,152,141,163.84,298,0.63865,0.55913,0.68876,0.50357,76.076,0.54795,141.22,0.68725,102.36,203,149,158.97,298,0.78696,1.574,0.34843,0.40347,48.837,0.53167,127.24,0.65233,43.084,91,150,34.731,289,1.407,0.53042,0.67628,0.19764,11.718,0.11616,7.9168,0.16272,32.246,41,149,11.98,278,1.7197,1.0538,0.47889,0.13796,5.7096,0.040067,0.805,0.051888
267.25,124,135,356.31,298,0.17661,1.3737,0.74235,1.2251,450.28,1.1917,754.29,1.5883,231.04,194,142,351.24,299,0.042819,1.7257,0.5,0.95106,271.36,1.1747,660.64,1.4864,156.16,75,142,112.33,296,0.39082,1.2832,0.39844,0.63759,121.96,0.37568,65.76,0.46897,89.306,30,153,26.203,285,0.8805,1.2631,0.40882,0.36237,39.393,0.087637,3.41,0.10679,117.98,141,147,158.61,293,0.62818,1.591,0.59423,0.50498,76.5,0.53046,137.04,0.67699,102.11,198,147,154.89,297,0.77372,1.7563,0.42316,0.41037,50.52,0.51802,126.56,0.65061,52.246,77,163,34.609,289,1.2903,1.9518,0.56688,0.22607,15.332,0.11575,6.5756,0.1483,35.51,33,158,12.073,280,1.698,1.9804,0.34316,0.14135,5.994,0.040379,0.76726,0.050657
236.7,139,151,310.69,296,0.0027748,1.4344,0.6029,1.0154,309.32,1.0391,513.26,1.3102,208.58,187,151,306.3,299,0.16154,1.9549,0.37868,0.82895,206.15,1.0244,468.32,1.2515,131.39,72,148,80.577,296,0.50337,0.92245,0.46107,0.55958,93.94,0.26949,34.248,0.33844,84.17,27,147,22.201,287,0.91931,1.3983,0.42208,0.34831,36.395,0.074251,2.7409,0.095744,130.48,147,144,185.11,292,0.47114,1.7641,0.67397,0.59378,105.77,0.6191,202.38,0.8227,114.65,201,147,181.38,297,0.62751,1.8833,0.54587,0.48478,70.502,0.60661,184.83,0.78624,69.395,78,161,51.664,293,1.0977,0.88407,0.41733,0.2822,23.891,0.17279,13.148,0.2097,38.523,34,157,12.154,272,1.5847,1.8144,0.42279,0.16119,7.7948,0.040648,0.74268,0.049839
260.37,140,139,363.3,298,0.081695,1.4855,0.50983,1.102,364.35,1.215,735.39,1.5683,224.36,205,148,359.83,298,0.10225,1.1757,0.37999,0.88788,236.5,1.2034,652.99,1.4778,132.59,86,153,103.77,293,0.50952,2.0124,0.43537,0.55539,92.538,0.34707,56.131,0.43328,88.221,34,132,29.152,291,0.87167,1.4676,0.46885,0.36707,40.421,0.097497,4.4404,0.12186,124.53,129,146,165.6,294,0.53128,1.3792,0.81115,0.56539,95.901,0.55383,167.46,0.74839,108.28,191,152,165.95,299,0.70406,2.6853,0.47925,0.4439,59.115,0.55502,149.73,0.70766,63.067,75,141,45.794,295,1.1316,1.3082,0.54003,0.27142,22.1,0.15316,13.366,0.21143,54.256,31,153,12.95,277,1.2905,1.5665,0.41387,0.22621,15.352,0.04331,0.81431,0.052186
290.78,135,147,387.98,298,0.21969,1.4003,0.74294,1.3031,509.42,1.2976,890.4,1.7257,254.54,197,148,388.5,299,0.049101,1.0694,0.58906,1.0564,334.81,1.2993,820.06,1.6561,149.44,73,141,106.09,293,0.39919,0.92687,0.43869,0.63078,119.37,0.35483,59.782,0.44715,105.31,32,155,28.979,293,0.68529,1.6467,0.47171,0.45378,61.774,0.09692,4.134,0.11758,113.55,145,131,162.15,293,0.61546,1.5641,0.7351,0.5086,77.602,0.54232,164.04,0.7407,103.76,210,131,163.07,297,0.72393,1.3612,0.48749,0.43384,56.465,0.5454,152.34,0.71379,52.134,87,151,41.082,295,1.3068,1.6225,0.50472,0.22177,14.754,0.1374,9.4087,0.17739,38.672,32,142,11.742,270,1.612,1.6629,0.41848,0.15627,7.3265,0.039271,0.74771,0.050007
261.24,141,152,351.82,299,0.11271,1.3782,0.67553,1.1431,392.03,1.1767,686.64,1.5154,227.96,198,151,348.95,299,0.06934,1.7055,0.41696,0.92233,255.21,1.1671,629.02,1.4504,119.78,79,162,89.646,295,0.61105,1.6417,0.45909,0.49552,73.661,0.29982,41.569,0.37286,106.58,35,154,33.877,296,0.71423,1.7485,0.38963,0.44217,58.655,0.1133,5.9107,0.1406,134.61,138,152,179.5,294,0.52183,1.4168,0.5883,0.57317,98.558,0.60033,178.49,0.77262,111.98,195,157,178.99,295,0.70119,1.9156,0.37584,0.44543,59.522,0.59862,160.48,0.7326,65.365,83,148,51.896,294,1.1282,1.1178,0.44125,0.27259,22.292,0.17356,14.408,0.21952,56.037,29,150,16.69,290,1.3024,1.4209,0.32831,0.22289,14.905,0.055821,1.4308,0.069175
292.17,141,148,423.53,297,0.23689,1.3676,0.76223,1.315,518.77,1.4165,1021,1.8479,267.6,216,145,427.4,299,0.051348,1.0567,0.39264,1.0592,336.6,1.4294,927.61,1.7614,156.9,86,148,125.25,298,0.34451,1.4687,0.49692,0.6715,135.27,0.41888,85.408,0.53446,97.993,36,143,33.852,293,0.79102,0.88863,0.39069,0.40173,48.417,0.11322,5.8967,0.14043,121.98,135,153,167.38,296,0.5412,1.4301,0.64627,0.54776,90.011,0.55981,165.83,0.74473,111.59,194,150,167.29,299,0.67446,1.9829,0.41596,0.45936,63.302,0.5595,152.79,0.71485,69.053,78,149,48.21,292,1.0593,1.7358,0.47787,0.2949,26.089,0.16124,11.936,0.1998,39.685,33,143,12.275,275,1.5448,0.90537,0.48096,0.16904,8.5721,0.041053,0.81226,0.052121
269.05,147,147,386.25,296,0.12113,1.3685,0.63319,1.1594,403.25,1.2918,822.49,1.6586,248.84,194,156,383.72,299,0.0020922,1.6352,0.42604,0.99757,298.55,1.2833,765.07,1.5996,129.19,78,150,89.399,297,0.51134,2.0709,0.49887,0.55545,92.556,0.29899,43.863,0.38301,70.639,36,143,24.487,279,1.0507,1.0239,0.46427,0.29785,26.614,0.081896,3.5562,0.10906,119.84,115,139,161.14,284,0.57039,1.7842,0.61363,0.53752,86.678,0.53894,148.77,0.70538,102.29,210,141,158.13,297,0.7544,1.5531,0.49227,0.419,52.668,0.52886,133.83,0.66903,61.585,85,150,48.216,294,1.1772,1.4816,0.46587,0.25744,19.882,0.16126,12.068,0.2009,41.504,36,152,13.139,274,1.4878,1.5671,0.49376,0.18023,9.7452,0.043943,0.94283,0.056154
262.63,148,145,374.54,298,0.10395,1.4644,0.58844,1.1373,388.02,1.2527,734.32,1.5671,236.44,201,148,369.94,297,0.056711,1.3306,0.35048,0.93525,262.41,1.2372,669.62,1.4965,129.82,73,153,88.764,296,0.54577,1.3623,0.41195,0.53271,85.135,0.29687,41.907,0.37438,98.659,31,142,28.18,287,0.68953,1.377,0.67515,0.45324,61.629,0.094248,4.5387,0.12321,112.07,121,134,154.82,273,0.59481,2.0751,0.70519,0.51916,80.857,0.5178,146.71,0.70047,106.05,188,142,155.28,298,0.72206,1.78,0.45662,0.43478,56.709,0.51933,132.53,0.66577,63.604,82,148,47.813,293,1.1552,1.5152,0.47524,0.26408,20.921,0.15991,11.849,0.19907,34.751,37,143,12.037,273,1.6888,1.7604,0.39357,0.14298,6.1328,0.040256,0.72136,0.049118
242.5,138,145,328.67,296,0.021716,1.3951,0.5864,1.0314,319.13,1.0992,606.78,1.4246,215.03,196,145,326.53,299,0.13733,1.4219,0.41281,0.85243,217.99,1.0921,561.61,1.3705,126.49,74,149,89.144,296,0.54926,1.7216,0.46434,0.53047,84.419,0.29814,42.096,0.37522,87.235,31,148,24.044,284,0.82539,1.6814,0.54707,0.3861,44.721,0.080416,2.8561,0.097736,120.04,135,151,163.91,288,0.58185,1.4152,0.66239,0.52416,82.423,0.5482,158.88,0.72895,102.95,202,151,162.56,298,0.74097,3.7795,0.4586,0.42546,54.306,0.54368,140.34,0.6851,56.467,88,149,45.918,290,1.214,1.1216,0.54039,0.24743,18.367,0.15357,12.211,0.20209,39.096,30,159,11.1,273,1.5509,0.98734,0.44292,0.16742,8.409,0.037124,0.66711,0.047235
277.75,170,152,413.56,299,0.11204,1.4223,0.48102,1.1482,395.54,1.3831,878.73,1.7143,259.73,212,149,412.68,299,0.0056684,2.2927,0.3773,1.008,304.8,1.3802,821.41,1.6575,116.55,87,144,94.478,297,0.6392,1.8974,0.4241,0.47829,68.629,0.31598,43.572,0.38174,78.678,36,144,27.291,289,0.95138,1.5342,0.49983,0.33388,33.443,0.091273,4.1406,0.11768,125.44,125,153,167.92,296,0.53781,1.0811,0.80135,0.56364,95.308,0.5616,169.41,0.75271,107.23,199,158,167.83,295,0.6888,1.4291,0.56359,0.45173,61.219,0.56131,155.06,0.72013,61.088,83,145,46.905,289,1.184,3.2029,0.45453,0.25544,19.575,0.15687,11.683,0.19767,37.298,35,147,12.597,285,1.6422,0.96879,0.38868,0.15072,6.8153,0.04213,0.7555,0.050267
271.41,158,145,393.18,297,0.11862,1.595,0.53499,1.1505,397.09,1.315,825.87,1.662,244.25,205,150,390.98,299,0.025984,2.0195,0.38241,0.96916,281.78,1.3076,763.42,1.5979,111.73,82,145,81.551,295,0.65254,1.1858,0.46728,0.47196,66.824,0.27274,35.338,0.34378,70.123,37,145,25.839,290,1.043,1.6201,0.49139,0.3005,27.09,0.086418,3.5674,0.10923,132.4,131,152,177.76,296,0.51295,0.90319,0.6133,0.57005,97.486,0.59453,172.86,0.76034,112.87,212,152,175.33,297,0.67656,1.458,0.49381,0.45855,63.079,0.5864,155.05,0.7201,56.94,92,142,48.016,295,1.208,3.9229,0.56753,0.24863,18.545,0.16059,12.544,0.20483,44.411,38,147,15.578,282,1.4234,1.559,0.5456,0.19454,11.353,0.052102,1.2194,0.063861
263.41,135,141,360.49,298,0.1026,1.4078,0.61678,1.1401,389.95,1.2057,723.49,1.5555,236.85,196,141,356.73,299,0.04293,1.5293,0.45598,0.95019,270.86,1.1931,657.54,1.483,136.46,80,148,105.76,296,0.50684,1.1057,0.41312,0.55707,93.099,0.35373,56.297,0.43392,105.41,28,141,25.091,289,0.70705,0.22272,0.49943,0.45023,60.811,0.083917,2.9939,0.10007,123.43,138,148,169.29,296,0.57315,1.4301,0.64175,0.53296,85.214,0.5662,159.41,0.73017,107.87,212,149,167.04,297,0.7146,1.4893,0.43674,0.43883,57.772,0.55868,146.07,0.69896,58.12,81,138,40.353,293,1.2067,2.0623,0.47809,0.24889,18.585,0.13496,8.406,0.16767,45.322,36,145,13.889,274,1.4112,1.5283,0.54711,0.19702,11.645,0.04645,0.9285,0.055726
49.401,70,143,44.551,280,1.6024,1.3718,1.349,0.21159,13.431,0.149,15.22,0.22562,27.979,211,156,44.857,294,1.7995,1.8454,0.8122,0.12587,4.7532,0.15002,13.261,0.2106,17.609,93,147,15.232,280,2.1262,0.90258,0.87839,0.086341,2.2364,0.050944,1.6605,0.074523,9.6571,41,152,3.9489,208,2.753,1.7271,0.50461,0.042022,0.52976,0.013207,0.090182,0.017367,47.75,26,127,23.365,258,2.1586,2.7177,0.71893,0.17673,9.3696,0.078144,3.4302,0.10711,14.38,208,140,23.246,284,2.4234,0.83249,0.71804,0.061321,1.1281,0.077747,3.1221,0.10218,7.8979,77,150,6.1426,240,2.9532,1.7425,0.43932,0.033317,0.333,0.020544,0.20662,0.026288,7.2256,28,148,1.8529,161,3.0105,0.86905,0.49623,0.031387,0.29555,0.0061971,0.018134,0.0077877
44.147,58,141,34.861,277,1.9264,1.7279,0.54565,0.17351,9.0318,0.11659,6.8734,0.15162,22.098,211,157,34.701,289,2.0765,1.0327,0.49064,0.091414,2.507,0.11606,6.3412,0.14563,10.813,85,144,8.2657,268,2.6762,2.0424,0.48176,0.04594,0.63314,0.027644,0.33824,0.033634,10.267,31,150,3.1553,226,2.7774,0.80212,0.34613,0.040795,0.49927,0.010553,0.046881,0.012522,41.974,20,132,22.115,263,2.3186,1.6441,0.53558,0.15398,7.113,0.073964,2.7073,0.095156,14.197,210,144,22.202,291,2.517,1.5709,0.32521,0.055053,0.90926,0.074253,2.463,0.090761,7.6197,80,153,5.8396,253,2.9795,1.7127,0.4941,0.032399,0.3149,0.01953,0.18749,0.025041,4.6293,39,144,1.5686,136,3.3747,1.3016,0.5669,0.020541,0.12658,0.0052463,0.013856,0.0068073
47.284,52,137,40.879,283,1.7381,0.3517,0.82365,0.19357,11.241,0.13672,10.504,0.18743,27.906,199,146,40.982,292,1.8434,1.4756,0.56735,0.11977,4.3036,0.13706,9.382,0.17714,16.603,81,149,12.717,279,2.254,1.5432,0.65216,0.074566,1.668,0.042531,1.0817,0.060147,10.805,31,146,3.3056,204,2.6834,1.8885,0.54416,0.04562,0.62435,0.011055,0.059643,0.014124,45.454,14,128,24.819,264,2.2608,1.7613,0.38766,0.1676,8.4266,0.083007,3.3697,0.10616,15.802,204,147,24.535,287,2.4209,1.1993,0.30831,0.061491,1.1343,0.082057,3.0619,0.10119,7.9211,89,153,6.4561,259,2.972,1.7553,0.38733,0.032605,0.31893,0.021592,0.20513,0.026192,3.6304,37,149,1.2933,107,3.6377,1.7174,0.46226,0.015194,0.069255,0.0043253,0.0083909,0.0052975
47.59,56,141,39.961,279,1.7588,1.4494,0.83067,0.19081,10.922,0.13365,9.9351,0.18229,24.96,205,154,38.851,298,1.9651,1.903,0.51441,0.104,3.2449,0.12994,8.5756,0.16935,14.973,87,150,12.224,271,2.371,1.5686,0.59198,0.065143,1.2731,0.040884,0.88512,0.054408,9.7615,39,146,3.1082,210,2.7853,1.4408,0.41905,0.040467,0.49128,0.010395,0.047863,0.012652,44.817,26,134,29.334,279,2.064,1.3645,1.1078,0.1708,8.7519,0.098107,4.9879,0.12916,18.502,201,144,29.215,295,2.2216,1.1346,0.6151,0.07736,1.7954,0.097709,4.5795,0.12376,10.067,73,152,6.7556,252,2.6835,1.8936,0.76476,0.045448,0.61966,0.022594,0.28738,0.031002,8.3663,28,136,2.0718,145,2.8445,0.32208,0.58329,0.037805,0.42877,0.0069292,0.026106,0.009344
50.226,68,139,43.353,286,1.663,1.432,0.95679,0.20261,12.315,0.14499,12.688,0.206,28.73,199,144,43.718,291,1.8092,0.87475,0.63804,0.12441,4.643,0.14622,11.773,0.19843,17.845,75,151,12.561,275,2.2168,1.6122,0.61473,0.077963,1.8235,0.042009,0.91821,0.055416,13.551,30,153,3.8844,223,2.4361,1.4348,0.6006,0.060528,1.0991,0.012991,0.099572,0.018249,45.316,22,127,26.63,267,2.1986,2.506,0.48421,0.16889,8.5569,0.089064,3.7685,0.11227,16.701,200,149,26.914,288,2.3717,1.9874,0.35376,0.065082,1.2707,0.090012,3.5006,0.1082,8.8312,82,156,6.5792,253,2.8569,2.0565,0.47602,0.037224,0.41568,0.022004,0.22507,0.027436,7.397,32,145,2.161,175,3.0103,1.4134,0.43233,0.031274,0.29342,0.0072276,0.024877,0.0091214
48.908,54,130,41.032,279,1.7723,0.62143,0.73383,0.1955,11.466,0.13723,10.777,0.18985,25.455,212,143,40.335,292,1.8944,1.649,0.61555,0.11281,3.8179,0.1349,10.082,0.18362,12.771,92,150,10.477,269,2.5121,1.6374,0.50215,0.055482,0.92347,0.035039,0.59299,0.044534,8.5292,39,154,3.2163,205,2.871,1.6988,0.46625,0.036649,0.40294,0.010757,0.054973,0.013559,44.404,12,137,24.896,267,2.2731,0.51784,0.56946,0.16416,8.0848,0.083263,3.4458,0.10735,15.865,211,153,24.984,286,2.4075,1.7049,0.37603,0.062654,1.1777,0.083558,3.1385,0.10245,9.3327,83,155,7.1165,264,2.8154,1.1157,0.42497,0.039062,0.45775,0.023801,0.27819,0.030503,5.0746,38,145,1.8131,164,3.3056,0.57339,0.53877,0.022216,0.14807,0.0060638,0.016342,0.0073929
47.114,58,138,39.834,274,1.7734,0.029744,0.91915,0.19451,11.35,0.13322,10.162,0.18436,26.514,198,155,40.058,295,1.8777,1.5645,0.65327,0.11499,3.9668,0.13397,9.4247,0.17754,14.13,80,152,10.474,272,2.4357,2.982,0.49811,0.060458,1.0966,0.03503,0.59545,0.044626,9.6333,29,155,2.7839,194,2.7483,2.2666,0.60584,0.042186,0.5339,0.0093106,0.043735,0.012094,44.729,22,133,28.314,268,2.1331,1.4164,0.74477,0.16786,8.4535,0.094694,4.5246,0.12301,18.037,211,152,28.189,291,2.2812,1.4144,0.46543,0.072279,1.5673,0.094277,4.107,0.1172,9.7703,84,145,7.8307,272,2.7884,1.647,0.43919,0.040278,0.48668,0.026189,0.32496,0.032967,8.2818,30,160,2.1658,172,2.8903,0.45855,0.50681,0.035872,0.38603,0.0072434,0.026013,0.0093273
47.31,68,141,41.695,276,1.7441,0.21169,0.90431,0.19268,11.138,0.13945,10.584,0.18815,25.193,212,150,40.642,293,1.9421,1.4925,0.59704,0.10673,3.4177,0.13593,9.4523,0.1778,16.337,84,144,12.099,285,2.2868,1.7432,0.58176,0.071788,1.5461,0.040464,0.79858,0.05168,11.451,28,142,3.3328,212,2.631,1.2706,0.46833,0.048381,0.70221,0.011147,0.058852,0.01403,44.602,34,136,32.599,280,1.9231,1.3906,1.0892,0.17503,9.1907,0.10903,6.794,0.15074,21.818,196,147,32.455,294,2.0724,0.96338,0.58086,0.091853,2.5311,0.10855,6.2108,0.14412,11.97,86,147,9.2955,275,2.5373,0.52513,0.72653,0.053782,0.86776,0.031088,0.45232,0.038894,10.956,33,142,3.409,217,2.6178,0.6716,0.61824,0.049022,0.72095,0.011401,0.061391,0.014329
48.253,60,136,42.078,284,1.8124,1.431,0.67542,0.18825,10.632,0.14073,9.5833,0.17903,24.807,217,142,40.937,297,2.0116,2.1463,0.38653,0.098531,2.9125,0.13691,8.3599,0.16721,13.954,91,144,11.814,265,2.4321,1.8292,0.50427,0.06071,1.1057,0.039511,0.80709,0.051955,8.7858,39,151,3.421,226,2.8802,1.3578,0.42897,0.036238,0.39396,0.011441,0.059576,0.014116,46.912,30,137,30.762,267,1.992,0.30576,0.83549,0.18089,9.8165,0.10288,5.8194,0.13951,19.105,205,148,30.397,283,2.2044,1.2158,0.56986,0.0789,1.8676,0.10166,5.0411,0.12985,12.203,85,142,9.2423,274,2.5523,1.6591,0.51861,0.052969,0.84172,0.030911,0.49583,0.040722,12.349,28,163,3.4558,229,2.617,1.1309,0.34282,0.049328,0.72999,0.011558,0.061574,0.01435
49.479,76,141,45.852,276,1.5978,0.26241,1.0152,0.20858,13.052,0.15335,14.073,0.21695,29.311,202,149,45.17,293,1.7711,1.8772,0.63701,0.12994,5.0652,0.15107,12.72,0.20626,16.938,74,150,11.798,268,2.26,0.59156,0.5854,0.07409,1.6468,0.039459,0.86571,0.053808,11.603,34,154,4.0025,231,2.6111,0.99333,0.52007,0.0495,0.73507,0.013386,0.095859,0.017905,44.012,32,130,27.701,274,2.1036,1.7146,0.76033,0.16643,8.3097,0.092647,4.237,0.11904,17.147,206,150,27.515,294,2.3316,1.9434,0.43159,0.06816,1.3937,0.092025,3.861,0.11363,11.57,69,146,7.6028,272,2.6456,2.1059,0.43553,0.047563,0.67866,0.025428,0.32799,0.03312,8.4251,28,146,2.1429,168,2.8953,0.88824,0.4111,0.035655,0.38138,0.0071668,0.024057,0.0089699
52.232,69,143,47.612,281,1.5993,0.38964,0.82213,0.21462,13.819,0.15924,13.639,0.21358,29.248,205,152,46.996,291,1.8278,2.0572,0.52958,0.12177,4.4483,0.15718,12.256,0.20246,18.838,71,153,12.354,273,2.1943,1.5412,0.49173,0.079938,1.917,0.041317,0.89338,0.054662,12.466,29,153,3.5785,215,2.5859,2.0508,0.40347,0.051009,0.78057,0.011968,0.070728,0.01538,45.374,24,133,29.742,271,2.1307,1.5671,0.57443,0.17069,8.7408,0.099472,4.7107,0.12552,18.333,211,149,29.43,294,2.2913,1.9052,0.38973,0.071385,1.5288,0.098428,4.2459,0.11917,9.6237,86,157,7.7899,268,2.7977,2.9863,0.44878,0.039955,0.47891,0.026053,0.30539,0.031959,7.1919,32,155,2.2858,177,3.0785,1.6723,0.35436,0.028841,0.24955,0.0076449,0.028241,0.0097186
47.387,78,135,45.469,278,1.7287,1.1776,0.56843,0.19291,11.164,0.15207,11.206,0.19359,28.722,201,148,44.884,293,1.8925,1.3449,0.3476,0.11299,3.8299,0.15011,10.269,0.18532,15.942,83,150,12.307,279,2.3686,2.0105,0.43029,0.065358,1.2815,0.04116,0.7426,0.049836,9.8466,31,161,2.9101,180,2.6277,1.3708,0.85359,0.048469,0.70479,0.0097329,0.059627,0.014122,42.882,28,121,26.936,268,2.1547,1.4025,0.62223,0.16088,7.7644,0.090088,4.0795,0.11681,17.334,196,137,26.625,293,2.318,2.6012,0.40943,0.069228,1.4378,0.089047,3.7258,0.11163,8.5062,84,154,6.4443,261,2.9063,1.4905,0.42802,0.035257,0.37292,0.021553,0.22081,0.027176,6.2679,38,142,2.2467,161,3.0885,1.4172,0.59589,0.028584,0.24511,0.0075139,0.030117,0.010036
50.286,68,142,49.295,285,1.6216,1.4876,0.77673,0.20647,12.788,0.16487,14.949,0.2236,30.135,206,152,49.125,296,1.8009,1.3286,0.51637,0.12555,4.7287,0.1643,13.475,0.21229,17.136,85,145,13.809,272,2.2526,1.7404,0.52872,0.07467,1.6727,0.046185,1.0892,0.060355,11.166,37,144,3.9649,233,2.6438,1.4866,0.53682,0.047605,0.67986,0.013261,0.080333,0.016391,46.589,42,137,35.277,270,1.9165,1.7378,0.86368,0.18057,9.7814,0.11798,7.2072,0.15526,22.226,207,153,34.913,292,2.0961,1.685,0.46549,0.089381,2.3967,0.11677,6.4117,0.14644,12.829,91,153,9.7726,272,2.4329,1.3648,0.84374,0.060742,1.1069,0.032684,0.51704,0.041584,8.2022,39,153,3.0406,212,2.9362,1.7014,0.46337,0.034032,0.34745,0.010169,0.046572,0.01248
49.282,64,145,40.573,280,1.7238,1.3787,0.80651,0.19684,11.624,0.1357,9.6243,0.17941,27.004,194,150,40.551,295,1.9001,1.9799,0.51861,0.11211,3.7708,0.13562,8.9408,0.17292,16.008,74,148,11.13,284,2.3297,1.5066,0.51863,0.068313,1.4,0.037225,0.653,0.046733,8.981,32,146,2.5169,179,2.763,1.6284,0.68749,0.041489,0.51641,0.0084176,0.038922,0.011409,45.442,58,136,36.706,278,1.8977,1.3757,0.95858,0.17951,9.6666,0.12276,8.5267,0.16887,23.806,206,141,37.51,294,2.005,1.4085,0.61943,0.099266,2.9561,0.12545,8.0334,0.16391,12.647,83,146,9.2257,267,2.4908,1.6033,0.72743,0.056835,0.96907,0.030855,0.53915,0.042464,8.5936,35,146,2.862,202,2.8878,0.79272,0.46112,0.035929,0.38726,0.0095721,0.042761,0.011959
54.349,69,140,50.57,280,1.5244,1.3834,0.8967,0.22361,15,0.16913,17.145,0.23946,32.369,196,146,49.727,293,1.7069,1.2616,0.58573,0.13991,5.8724,0.16631,15.255,0.22588,18.441,80,156,13.732,269,2.1689,1.8934,0.57834,0.082234,2.0287,0.045928,1.202,0.063404,13.322,34,147,4.4163,236,2.4895,2.3682,0.44868,0.056852,0.96965,0.01477,0.10249,0.018514,48.301,36,132,35.634,275,1.8856,1.3678,1.0753,0.18556,10.33,0.11918,8.0296,0.16387,22.505,209,150,35.89,294,2.052,0.95319,0.61742,0.09405,2.6536,0.12004,7.3504,0.15679,13.324,79,153,10.151,264,2.4843,0.59835,0.52726,0.05719,0.98121,0.033949,0.55554,0.043105,8.5001,36,149,2.919,213,2.8766,1.4648,0.53185,0.036409,0.39768,0.0097627,0.042336,0.011899
51.62,74,140,49.907,287,1.6279,0.89864,0.71518,0.21187,13.467,0.16691,14.399,0.21945,33.029,198,151,49.616,295,1.7287,2.0034,0.52465,0.13651,5.5903,0.16594,13.539,0.21279,17.41,78,147,12.004,273,2.2454,1.1399,0.53451,0.075278,1.7,0.040148,0.74862,0.050037,9.4511,33,151,3.1055,216,2.8082,0.72584,0.45879,0.039405,0.46582,0.010386,0.050531,0.013,45.098,34,136,29.079,271,2.0337,0.34099,0.89989,0.17374,9.0562,0.097254,4.9905,0.12919,19.632,196,145,28.994,290,2.2039,1.4273,0.4569,0.078986,1.8716,0.096971,4.5106,0.12282,10.434,88,144,7.8098,254,2.6553,1.4804,0.58103,0.047023,0.66336,0.02612,0.34067,0.033754,7.601,35,158,2.5505,192,2.9814,1.4768,0.59103,0.032294,0.31288,0.00853,0.037571,0.01121
53.049,78,147,54.165,285,1.5492,0.74721,0.68926,0.21879,14.361,0.18116,18.084,0.24593,34.855,197,156,54.284,295,1.6701,0.85877,0.54441,0.14605,6.3988,0.18155,17.034,0.23868,17.485,82,149,13.304,285,2.2607,1.896,0.49503,0.073976,1.6417,0.044493,0.8845,0.054389,9.9172,35,144,3.3678,216,2.7825,1.3896,0.42989,0.040563,0.4936,0.011264,0.058527,0.013991,46.224,42,129,34.589,274,1.881,1.3706,1.1769,0.1818,9.9152,0.11568,8.2684,0.16629,22.088,206,147,35.005,290,2.0241,1.1159,0.75976,0.097118,2.8296,0.11707,7.5653,0.15907,10.988,94,151,9.495,270,2.5883,1.6398,0.71351,0.050717,0.77166,0.031756,0.57142,0.043716,10.97,39,152,4.0802,221,2.6715,1.7605,0.42376,0.046083,0.63708,0.013646,0.092243,0.017564
55.591,90,137,58.016,284,1.4883,0.51813,0.74307,0.23107,16.017,0.19403,20.334,0.26078,37.974,199,150,58.239,295,1.6336,2.6823,0.42154,0.15223,6.9519,0.19478,18.44,0.24834,18.496,85,142,13.868,281,2.1493,1.5885,0.56841,0.084066,2.1201,0.046382,1.2085,0.063576,14.812,35,140,4.6723,240,2.3678,1.3006,0.50554,0.065428,1.2843,0.015626,0.12426,0.020386,47.532,30,138,37.445,275,1.7709,1.6122,0.95196,0.19318,11.195,0.12524,8.8657,0.1722,25.204,201,155,38.027,294,1.9562,1.3697,0.51893,0.10502,3.309,0.12718,8.1656,0.16526,15.297,80,146,10.407,274,2.3358,0.84293,0.56833,0.067825,1.3801,0.034807,0.58977,0.044413,14.077,30,149,4.0318,231,2.497,1.6865,0.38414,0.056393,0.95404,0.013484,0.085107,0.016871
52.088,74,137,50.697,285,1.6045,1.3747,0.71719,0.20727,12.889,0.16956,15.841,0.23017,31.042,213,150,50.988,295,1.7731,1.1704,0.53571,0.12964,5.0416,0.17053,14.325,0.21888,16.054,92,151,13.674,274,2.317,1.7633,0.50387,0.069322,1.4417,0.045732,0.99046,0.057555,11.837,42,145,4.2286,234,2.5642,0.47815,0.51318,0.05218,0.81682,0.014142,0.099201,0.018215,47.452,36,141,34.104,276,1.8672,0.41313,0.81909,0.18639,10.423,0.11406,7.5729,0.15915,22.86,193,152,33.993,295,2.0231,1.6337,0.63523,0.097211,2.835,0.11369,6.967,0.15265,15.194,76,147,10.493,277,2.3704,1.4643,0.5888,0.065195,1.2751,0.035094,0.61577,0.045381,12.069,29,151,3.6429,217,2.6073,2.2137,0.46999,0.049685,0.74058,0.012184,0.076261,0.01597
57.265,74,141,52.482,280,1.5345,1.3798,0.7448,0.22705,15.466,0.17553,16.71,0.2364,32.194,208,153,51.391,295,1.7263,1.4739,0.47993,0.13682,5.6158,0.17188,15.186,0.22536,17.83,84,143,13.507,279,2.2381,1.5406,0.47316,0.075993,1.7325,0.045175,0.98602,0.057426,14.361,36,150,5.0104,222,2.377,1.6622,0.6089,0.064751,1.2578,0.016757,0.16437,0.023446,47.419,38,141,36.425,279,1.9391,1.4908,0.64475,0.18125,9.8555,0.12182,7.541,0.15881,22.934,202,154,36.416,293,2.0582,1.254,0.43243,0.093358,2.6147,0.12179,6.9582,0.15255,11.521,83,143,8.794,274,2.6336,2.028,0.46018,0.048177,0.69632,0.029411,0.39047,0.036138,8.1587,32,137,2.5499,195,2.911,1.4577,0.5152,0.035001,0.36752,0.0085281,0.034366,0.010721
54.919,76,139,50.952,281,1.485,1.4689,0.7701,0.2299,15.857,0.17041,16.781,0.23691,32.431,188,156,49.88,296,1.7061,1.1655,0.5686,0.14003,5.8822,0.16682,14.934,0.22348,27.384,68,156,16.631,286,1.8706,1.3842,0.46387,0.11674,4.0887,0.055622,1.5088,0.071037,18.958,30,144,5.0469,245,2.2179,1.0689,0.41098,0.078171,1.8332,0.016879,0.12163,0.020169,45.025,42,144,33.67,280,2.0078,0.36849,0.63254,0.176,9.2928,0.11261,6.0419,0.14215,20.884,211,148,33.452,292,2.1634,1.819,0.43736,0.08274,2.0538,0.11188,5.5881,0.13671,10.543,84,144,8.3899,270,2.6802,1.6779,0.52934,0.045622,0.6244,0.02806,0.37457,0.035394,8.6527,36,139,2.6097,178,2.8154,1.4343,0.54037,0.039309,0.46356,0.0087281,0.038757,0.011385
56.431,58,144,52.406,282,1.4765,1.6428,0.95908,0.23755,16.929,0.17527,18.664,0.24984,34.761,209,159,53.771,297,1.6373,1.26,0.61871,0.1516,6.8945,0.17984,16.873,0.23756,23.685,79,145,16.773,285,1.9475,1.7766,0.63553,0.10607,3.3753,0.056098,1.6882,0.07514,19.569,29,136,4.9946,249,2.1911,0.9955,0.4262,0.080148,1.9271,0.016704,0.12218,0.020215,47.984,40,129,38.364,270,1.7509,1.3684,1.0926,0.19183,11.04,0.12831,11.415,0.19539,26.142,197,141,39.056,291,1.8643,0.64919,0.6735,0.11671,4.0862,0.13062,10.365,0.18619,16.122,89,146,13.282,273,2.2711,1.881,0.60099,0.073094,1.6028,0.04442,1.0653,0.059691,11.47,39,145,3.971,227,2.5875,1.536,0.53613,0.05089,0.77694,0.013281,0.088306,0.017185
54.997,88,148,60.49,288,1.4046,0.43262,0.8491,0.23943,17.198,0.20231,25.131,0.28992,37.632,203,157,60.069,295,1.5604,1.1529,0.61122,0.16563,8.2296,0.2009,23.244,0.27881,26.181,75,154,17.79,281,1.9188,0.89456,0.43582,0.10963,3.6053,0.059498,1.7024,0.075456,13.732,37,145,4.7786,218,2.4145,0.90303,0.5878,0.061967,1.152,0.015982,0.14097,0.021714,49.37,58,134,39.231,274,1.7846,1.3688,0.97045,0.19475,11.378,0.13121,9.6452,0.17961,25.983,202,144,39.69,295,1.9092,0.83331,0.65118,0.11088,3.6883,0.13274,8.7562,0.17113,14.629,84,150,10.762,274,2.371,3.1364,0.71627,0.065136,1.2728,0.035995,0.67246,0.047424,11.619,34,144,3.3688,199,2.5082,1.3984,0.60916,0.055617,0.92796,0.011267,0.076065,0.01595
56.432,68,136,53.961,279,1.4527,1.4593,0.89234,0.23871,17.094,0.18047,19.435,0.25495,34.799,197,151,53.938,289,1.6476,0.83706,0.57417,0.1498,6.7317,0.1804,17.502,0.24194,22.556,80,149,16.567,286,2.0137,1.9019,0.55323,0.098272,2.8972,0.055407,1.5666,0.072383,20.605,29,147,5.5986,258,2.1615,0.93807,0.3373,0.082918,2.0626,0.018724,0.15905,0.023064,45.662,28,138,32.14,274,2.0602,1.9522,0.52289,0.1741,9.0933,0.10749,5.6944,0.138,20.19,208,151,32.538,295,2.2003,1.1761,0.37264,0.079352,1.889,0.10882,5.1898,0.13175,9.8827,90,152,8.8104,261,2.7791,1.9401,0.43003,0.040713,0.49728,0.029466,0.42315,0.037619,6.0642,39,149,2.2378,184,3.1969,1.8077,0.40168,0.025169,0.19004,0.0074841,0.026494,0.0094133
52.871,94,142,55.364,280,1.5182,2.1934,0.84697,0.21846,14.317,0.18516,19.673,0.25651,33.904,215,148,55.393,297,1.6831,1.4732,0.55785,0.1439,6.2123,0.18526,17.692,0.24325,20.805,86,150,16.453,279,2.0658,1.2646,0.58464,0.092657,2.5756,0.055025,1.58,0.072694,12.545,30,146,3.4711,211,2.5886,1.199,0.38526,0.05074,0.77237,0.011609,0.064322,0.014667,45.193,46,134,34.767,280,1.9178,1.459,0.78409,0.17584,9.276,0.11628,6.8467,0.15132,21.547,210,146,34.166,294,2.1224,1.3765,0.44288,0.08677,2.2587,0.11427,6.1427,0.14333,13.65,82,144,10.124,274,2.4719,0.52968,0.52078,0.058015,1.0097,0.033858,0.51997,0.041702,10.468,33,167,3.1802,194,2.6634,1.4835,0.57214,0.046517,0.64915,0.010636,0.055445,0.013617
54.408,66,147,49.397,284,1.583,1.5486,0.77985,0.22245,14.845,0.16521,14.408,0.21952,31.279,213,145,49.409,295,1.7847,0.77311,0.5416,0.12793,4.9099,0.16525,13.039,0.20882,17.182,90,155,13.996,287,2.2609,2.3284,0.49872,0.073944,1.6403,0.046809,1.0261,0.058581,15.455,39,144,5.1966,242,2.3114,1.4371,0.59485,0.069849,1.4637,0.01738,0.14715,0.022185,48.473,42,135,34.41,279,1.9407,1.3794,0.68028,0.1841,10.168,0.11508,6.6568,0.14921,21.343,202,149,33.416,291,2.142,2.0007,0.36166,0.084785,2.1566,0.11176,5.7982,0.13925,12.999,81,156,9.9456,273,2.4906,0.80173,0.57329,0.05684,0.96924,0.033263,0.58305,0.044159,7.5751,31,151,2.1608,165,2.9806,0.43171,0.4683,0.032468,0.31626,0.0072268,0.026815,0.0094701
51.826,90,140,50.034,278,1.5981,1.7728,0.59041,0.20926,13.137,0.16734,14.826,0.22268,32.9,204,146,50.538,294,1.7586,0.96643,0.4123,0.13182,5.2129,0.16902,13.616,0.2134,18.81,78,152,13.571,276,2.2063,2.2642,0.42811,0.078754,1.8607,0.045387,0.94749,0.056293,12.416,34,143,4.2174,237,2.5803,1.744,0.42782,0.051215,0.7869,0.014105,0.088051,0.017161,46.28,54,144,35.507,279,1.9132,0.46458,0.67064,0.18264,10.007,0.11875,7.5228,0.15862,22.252,205,149,35.552,291,2.0732,1.7926,0.5239,0.091766,2.5263,0.1189,6.7663,0.15043,13.409,83,144,10.685,271,2.5022,0.93465,0.46326,0.056011,0.94117,0.035734,0.62043,0.045552,7.4995,37,144,2.6918,171,2.9639,1.5404,0.48791,0.032951,0.32574,0.0090028,0.043765,0.012098
50.295,84,136,50.187,282,1.5973,0.26827,0.68444,0.21048,13.291,0.16785,14.681,0.22158,31.879,193,149,49.911,292,1.7711,1.3671,0.42662,0.13021,5.0867,0.16693,13.469,0.21224,21.656,75,142,14.295,283,2.0836,1.2824,0.44827,0.090749,2.4706,0.047809,1.102,0.060708,7.6101,33,149,2.4587,185,2.967,0.5536,0.54893,0.032807,0.3229,0.008223,0.033302,0.010554,43.506,40,127,32.752,270,1.9494,1.4209,0.93295,0.17155,8.8284,0.10954,6.5754,0.14829,21.289,195,145,32.87,290,2.0991,0.79059,0.55891,0.089108,2.3821,0.10993,5.986,0.14149,11.821,78,146,8.6406,264,2.5649,0.81505,0.57198,0.052105,0.81449,0.028898,0.44573,0.03861,10.787,30,158,3.177,196,2.5583,1.3771,0.79327,0.052514,0.82731,0.010625,0.0583,0.013964
55.676,88,145,59.266,285,1.4904,1.8961,0.77297,0.22558,15.266,0.19821,21.482,0.26804,37.888,205,153,60.579,294,1.6145,1.6211,0.4835,0.1556,7.2636,0.2026,19.541,0.25565,19.889,87,157,17.042,279,2.1474,1.8152,0.49585,0.084256,2.1297,0.056998,1.7163,0.075763,12.481,37,144,4.2635,236,2.5706,1.473,0.40937,0.051823,0.8057,0.014259,0.088016,0.017157,44.967,38,139,32.675,276,1.9875,1.3895,0.78194,0.17275,8.953,0.10928,6.2898,0.14504,20.996,201,152,32.51,291,2.1316,1.937,0.45686,0.08581,2.209,0.10873,5.8138,0.13944,9.589,86,136,7.4476,248,2.7261,0.61274,0.66252,0.043361,0.56405,0.024909,0.34902,0.034165,8.0949,33,161,2.3722,185,2.9011,1.7543,0.51165,0.035383,0.3756,0.0079337,0.03043,0.010088
56.28,87,142,58.093,282,1.4951,0.74157,0.70549,0.23062,15.956,0.19429,21.123,0.26579,36.405,211,141,58.159,291,1.6198,2.8385,0.54917,0.15493,7.2011,0.19451,19.439,0.25497,19.006,85,154,14.836,275,2.159,1.6821,0.55377,0.083165,2.0749,0.049619,1.3586,0.067409,10.457,35,142,3.3742,228,2.7259,0.45868,0.50866,0.043303,0.56255,0.011285,0.054758,0.013533,46.279,42,138,35.099,279,1.8727,1.3961,1.3532,0.18355,10.108,0.11739,8.3504,0.16712,22.049,204,153,35.299,291,2.0533,1.9882,0.76917,0.09392,2.6463,0.11806,7.4042,0.15736,12.518,83,141,9.9591,267,2.4728,2.1275,0.88382,0.058111,1.0131,0.033308,0.74004,0.04975,9.7132,29,145,2.384,169,2.7136,3.1995,0.5784,0.044387,0.59105,0.0079731,0.034983,0.010817
52.106,79,144,52.508,281,1.6028,1.5804,0.62753,0.21119,13.38,0.17561,15.499,0.22768,33.861,204,156,52.867,297,1.7082,0.91234,0.50814,0.1397,5.8552,0.17681,14.424,0.21964,17.452,81,144,12.888,278,2.2134,1.8556,0.61343,0.078102,1.83,0.043104,0.96346,0.056765,11.848,29,156,3.3958,225,2.6467,1.2343,0.39888,0.04744,0.67518,0.011357,0.057341,0.013848,49.176,40,141,34.665,270,1.9084,1.3768,0.88742,0.18826,10.633,0.11594,7.4167,0.1575,23.36,202,144,35.611,288,2.0513,1.7981,0.48056,0.094111,2.6571,0.1191,6.8352,0.1512,13.661,77,154,9.5663,271,2.4275,1.0288,0.6493,0.061031,1.1174,0.031994,0.53391,0.042257,8.3309,36,150,2.705,179,2.8463,1.0845,0.56265,0.037797,0.42858,0.0090467,0.043725,0.012093
53.66,62,123,45.877,271,1.6081,2.1895,0.67322,0.21689,14.112,0.15344,13.037,0.20881,29.949,203,146,45.395,292,1.7703,1.9267,0.58986,0.1301,5.078,0.15182,11.669,0.19755,16.842,78,154,12.184,273,2.3069,1.8796,0.46169,0.070132,1.4755,0.04075,0.84975,0.05331,13.771,31,143,3.7983,216,2.4255,1.9684,0.58472,0.061492,1.1344,0.012703,0.084632,0.016824,48.677,56,140,40.328,283,1.8542,1.8095,0.5483,0.19089,10.931,0.13488,8.4603,0.16821,25.618,207,149,39.784,292,1.9872,1.5583,0.38742,0.10151,3.0913,0.13306,7.7068,0.16055,11.401,95,155,10.148,274,2.6259,3.2575,0.4709,0.048569,0.7077,0.033941,0.54136,0.042551,9.9507,36,145,3.2671,221,2.7269,1.5251,0.57671,0.043468,0.56684,0.010927,0.051614,0.013139
54.392,82,140,55.109,287,1.5166,1.3742,0.92567,0.22552,15.258,0.18431,18.386,0.24797,34.589,206,148,53.706,294,1.6814,2.9801,0.50899,0.14408,6.2277,0.17962,16.397,0.23418,18.892,88,156,15.648,286,2.1812,1.7779,0.46786,0.081161,1.9761,0.052334,1.3818,0.067981,15.209,34,151,5.3232,241,2.3947,1.842,0.45351,0.063378,1.205,0.017803,0.16173,0.023257,46.138,58,134,35.507,279,1.9465,1.4255,0.5657,0.17648,9.3435,0.11875,6.811,0.15093,23.558,191,139,35.431,292,2.0553,1.8329,0.38141,0.093782,2.6385,0.1185,6.3951,0.14625,11.183,77,147,8.3267,272,2.6389,1.6786,0.54209,0.047857,0.68709,0.027849,0.37017,0.035186,6.568,27,131,1.5891,134,3.1229,2.0441,0.42671,0.027677,0.2298,0.0053146,0.012802,0.0065435
50.856,80,137,51.513,281,1.6136,1.8864,0.58183,0.20901,13.105,0.17229,14.336,0.21897,34.473,202,147,52.344,294,1.7136,1.6861,0.41967,0.13895,5.7921,0.17506,13.446,0.21206,16.076,80,151,11.65,284,2.3371,0.80409,0.56522,0.067736,1.3764,0.038963,0.66567,0.047184,8.8585,34,148,3.0277,209,2.8498,1.475,0.54528,0.037532,0.42261,0.010126,0.053839,0.013419,47.821,52,129,40.583,280,1.8614,2.07,0.72675,0.18808,10.612,0.13573,9.2802,0.17617,25.307,220,140,40.662,293,1.9811,1.9309,0.42423,0.10204,3.1236,0.13599,8.6248,0.16984,14.552,84,150,11.216,278,2.4211,1.7293,0.48989,0.061481,1.134,0.037512,0.66667,0.047219,7.0288,36,150,2.4351,178,3.0225,0.84313,0.56351,0.03081,0.28478,0.008144,0.03452,0.010745
56.449,76,137,53.706,277,1.5199,1.517,0.60009,0.22725,15.493,0.17962,16.439,0.23448,38.107,189,149,52.933,295,1.6245,2.386,0.44942,0.1541,7.1245,0.17703,15.192,0.22541,20.233,71,150,13.592,285,2.1553,1.2301,0.43229,0.083627,2.098,0.045458,1.0023,0.057898,12.927,29,172,3.5476,210,2.5582,0.7883,0.38282,0.052505,0.82704,0.011865,0.066879,0.014956,45.904,44,139,35.711,273,1.9,0.33169,0.68255,0.18286,10.032,0.11943,7.6204,0.15964,23.226,205,149,36.05,295,2.0431,1.2099,0.44794,0.094997,2.7073,0.12057,6.9775,0.15276,11.871,82,140,9.1371,270,2.5676,1.4263,0.68696,0.051951,0.80966,0.030559,0.46399,0.039393,8.744,34,158,2.7122,195,2.8706,1.5446,0.46034,0.037011,0.41094,0.009071,0.041171,0.011734
56.687,66,138,51.845,282,1.5,1.688,0.87502,0.2368,16.822,0.17339,18.038,0.24562,36.243,194,149,52.57,293,1.5856,1.6636,0.61963,0.1609,7.7671,0.17582,16.82,0.23718,22.339,78,153,15.934,282,2.0639,1.5176,0.44366,0.092764,2.5816,0.05329,1.3081,0.066142,16.48,28,151,4.5473,235,2.3195,1.6313,0.44653,0.069121,1.4333,0.015208,0.10719,0.018934,47.591,50,136,37.956,270,1.8825,1.4362,0.68583,0.18267,10.011,0.12694,8.4259,0.16787,24.236,210,148,38.518,293,2.01,1.6608,0.45446,0.098836,2.9305,0.12882,7.7926,0.16144,12.364,91,150,10.027,272,2.548,1.3969,0.51309,0.053122,0.84658,0.033536,0.54186,0.04257,11.197,34,145,3.31,232,2.6984,1.7565,0.39794,0.045416,0.61878,0.01107,0.05088,0.013045
49.25,84,141,49.728,279,1.6094,1.8087,0.63993,0.20261,12.315,0.16632,14.685,0.22161,31.706,200,151,49.957,294,1.7627,1.05,0.52441,0.13119,5.1633,0.16708,13.59,0.21319,19.733,78,151,14.605,284,2.1694,1.7431,0.46065,0.082175,2.0258,0.048845,1.1198,0.061198,10.623,32,144,3.1994,221,2.7379,0.92389,0.39503,0.042747,0.5482,0.0107,0.052915,0.013303,47.731,65,138,40.94,277,1.8317,1.4955,0.60393,0.18745,10.541,0.13692,9.4324,0.17761,27.007,208,145,40.662,289,1.9161,1.4509,0.54161,0.11002,3.6316,0.13599,8.7794,0.17135,13.324,83,152,9.7341,265,2.4671,1.9491,0.60416,0.058312,1.0201,0.032555,0.5428,0.042607,9.2336,33,143,2.5603,204,2.8165,1.3716,0.53796,0.039686,0.47249,0.008563,0.032006,0.010346
52.734,82,145,52.941,281,1.5595,0.69561,0.67511,0.22033,14.564,0.17706,16.053,0.23171,32.502,215,149,52.508,297,1.7495,0.95534,0.50974,0.13322,5.3246,0.17561,14.265,0.21842,22.087,75,145,14.536,275,2.0462,2.6576,0.48982,0.094674,2.689,0.048615,1.2028,0.063424,9.1078,33,159,3.184,182,2.8218,1.6375,0.46399,0.038808,0.45182,0.010649,0.065574,0.014809,47.584,44,130,35.558,268,1.8856,1.3838,0.88299,0.18616,10.397,0.11892,7.8195,0.16172,23.594,193,143,35.602,290,2.0162,1.9554,0.5572,0.098159,2.8905,0.11907,7.2498,0.15571,12.677,76,157,8.2584,259,2.5047,1.5263,0.54332,0.055919,0.93807,0.02762,0.43427,0.03811,8.9178,33,150,2.765,204,2.8454,1.8806,0.47363,0.037744,0.42739,0.0092476,0.038961,0.011415
56.799,93,137,61.714,280,1.4474,0.38538,0.76614,0.23757,16.932,0.2064,22.305,0.27313,39.194,206,145,61.288,293,1.5904,1.6938,0.50579,0.16008,7.6875,0.20498,20.151,0.25961,21.143,84,146,17.066,284,2.086,1.9655,0.50434,0.090431,2.4533,0.057078,1.6828,0.07502,19.027,33,146,5.6522,258,2.1886,0.51354,0.44906,0.080828,1.9599,0.018904,0.16554,0.02353,48.966,58,140,43.338,278,1.7139,1.3858,0.88616,0.19799,11.76,0.14494,11.626,0.19719,27.431,215,145,43.741,294,1.8852,0.84337,0.55694,0.11397,3.8967,0.14629,10.144,0.18419,16.689,87,149,13.402,271,2.2587,1.442,0.57296,0.074272,1.6549,0.044824,1.1671,0.062477,14.143,33,149,4.1175,207,2.4427,1.835,0.40523,0.059988,1.0796,0.013771,0.10147,0.018422
52.991,102,138,55.67,288,1.5065,1.5795,0.62246,0.21898,14.386,0.18619,17.032,0.23867,35.504,203,150,54.47,294,1.6871,0.99708,0.43696,0.14314,6.1466,0.18217,15.495,0.22765,21.593,77,138,14.169,274,2.0406,1.5084,0.51855,0.09542,2.7315,0.047389,1.1345,0.061599,10.35,36,155,3.6378,219,2.7069,1.4622,0.55507,0.044269,0.58792,0.012167,0.071212,0.015433,49.173,58,139,46.399,287,1.7062,0.67066,0.81306,0.20154,12.186,0.15518,12.5,0.20446,28.264,204,143,45.972,296,1.8539,1.2693,0.47581,0.11835,4.2022,0.15375,11.408,0.19533,15.029,75,144,10.635,264,2.3825,1.9916,0.51144,0.064329,1.2415,0.035568,0.66809,0.04727,9.407,33,152,3.1245,209,2.7857,2.9686,0.49276,0.040531,0.49282,0.01045,0.056822,0.013785
53.857,80,139,52.992,284,1.5712,1.5351,0.58938,0.21788,14.242,0.17723,15.919,0.23074,34.353,194,145,52.602,295,1.7018,1.6206,0.47154,0.14078,5.9457,0.17593,14.632,0.22122,19.158,79,148,14.061,280,2.1829,1.003,0.48545,0.080878,1.9624,0.047027,1.028,0.058636,11.951,31,137,3.194,200,2.554,0.47776,0.54542,0.052807,0.83656,0.010682,0.055926,0.013676,51.294,58,139,43.44,277,1.7649,1.4464,0.66413,0.19969,11.962,0.14528,11.353,0.19486,27.491,205,156,43.709,292,1.8961,1.9518,0.48345,0.11254,3.7994,0.14618,10.545,0.18779,15.616,81,149,11.384,263,2.3302,1.6899,0.49284,0.068292,1.3991,0.038074,0.73847,0.049697,10.158,31,146,2.9731,203,2.758,1.2638,0.37352,0.041926,0.52733,0.0099434,0.050023,0.012934
58.083,94,139,62.096,283,1.4516,1.4638,0.59776,0.23597,16.705,0.20768,20.381,0.26108,39.389,207,147,61.881,298,1.6173,1.4933,0.41127,0.15511,7.2181,0.20696,18.471,0.24855,21.028,84,145,16.36,288,2.1077,1.9898,0.44401,0.088343,2.3414,0.054716,1.3605,0.067455,13.766,35,146,4.1064,236,2.4624,1.4362,0.50753,0.058772,1.0363,0.013734,0.082514,0.016612,45.537,66,143,38.899,279,1.8828,2.0993,0.56098,0.17922,9.6357,0.1301,7.9047,0.16259,24,205,161,38.277,293,2.0501,2.1305,0.37165,0.094278,2.6665,0.12802,7.2418,0.15563,13.206,81,140,9.6845,282,2.5453,1.7309,0.3771,0.053312,0.85266,0.03239,0.45899,0.03918,10.202,31,160,2.5603,195,2.7195,1.3916,0.46195,0.044124,0.58407,0.0085628,0.031854,0.010322
55.04,98,147,60.617,289,1.4489,1.3904,0.73742,0.23065,15.961,0.20273,20.489,0.26177,39.475,193,149,60.374,295,1.6106,2.113,0.37708,0.1564,7.3385,0.20192,18.483,0.24863,20.729,82,148,16.376,287,2.1119,1.9678,0.56349,0.087773,2.3113,0.054771,1.4288,0.069127,19.212,30,138,5.2659,248,2.2309,0.99927,0.34273,0.076578,1.7592,0.017612,0.14073,0.021695,49.976,78,134,45.582,273,1.7387,1.3669,0.82192,0.19663,11.6,0.15245,11.742,0.19817,28.197,207,145,45.86,296,1.8904,1.5804,0.46588,0.11371,3.879,0.15338,10.706,0.18922,17.509,80,147,12.49,282,2.2414,0.82339,0.55981,0.075608,1.715,0.041773,0.86011,0.053634,11.578,33,144,3.4459,220,2.6362,1.4387,0.50182,0.048043,0.69244,0.011525,0.066524,0.014916
53.917,106,140,60.439,293,1.5143,2.2733,0.52749,0.22079,14.625,0.20214,18.678,0.24993,37.753,209,143,59.089,294,1.6566,2.3189,0.3685,0.14835,6.602,0.19762,17.361,0.24097,17.739,82,147,13.059,273,2.2466,2.289,0.56511,0.075175,1.6954,0.043677,0.88182,0.054307,11.36,38,143,4.2728,243,2.6465,1.4913,0.4692,0.04744,0.67516,0.01429,0.091942,0.017536,47.027,56,136,41.501,278,1.8482,1.5438,0.64861,0.18539,10.311,0.1388,9.15,0.17493,26.454,208,150,41.287,291,1.9584,1.6302,0.41301,0.10475,3.2915,0.13808,8.4886,0.16849,12.564,81,149,9.6163,277,2.5506,1.9772,0.56001,0.052987,0.84228,0.032162,0.49326,0.040616,5.6854,39,155,2.19,163,3.1964,1.7415,0.5553,0.025202,0.19054,0.0073244,0.028496,0.0097624
55.888,78,145,57.608,287,1.5429,1.9257,0.57684,0.22798,15.593,0.19267,17.96,0.24509,33.064,220,151,56.702,296,1.7436,1.1682,0.46326,0.13412,5.3966,0.18964,15.963,0.23106,19.346,83,151,14.665,280,2.1753,1.6548,0.43354,0.081779,2.0063,0.049047,1.191,0.063114,9.8379,37,149,3.1778,210,2.743,1.4981,0.46003,0.04245,0.5406,0.010628,0.055471,0.013621,47.992,42,137,36.272,276,1.9046,1.5836,0.70069,0.18467,10.23,0.12131,7.0608,0.15367,22.442,213,150,35.877,297,2.0965,2.2538,0.45146,0.089343,2.3946,0.11999,6.3517,0.14575,13.738,82,152,10.14,271,2.4263,1.83,0.58749,0.061114,1.1205,0.033912,0.57283,0.04377,7.3633,37,153,2.69,214,3.0282,1.8519,0.50356,0.030561,0.28019,0.0089968,0.036596,0.011063
55.975,97,141,56.308,283,1.4654,1.4645,0.74689,0.23009,15.883,0.18832,18.414,0.24816,34.164,207,147,55.775,296,1.7009,1.796,0.47085,0.14088,5.9539,0.18654,16.738,0.2366,21.763,74,150,14.535,284,2.0633,0.53945,0.53207,0.092897,2.589,0.048614,1.1505,0.06203,16.751,29,140,4.3284,240,2.3067,1.6322,0.4444,0.070257,1.4808,0.014476,0.098258,0.018128,47.359,60,141,39.18,279,1.857,1.4391,0.67883,0.18521,10.291,0.13104,8.8891,0.17242,24.887,202,148,39.618,296,1.9912,1.7071,0.47004,0.10085,3.0514,0.1325,8.2608,0.16622,11.882,85,146,8.8625,268,2.5622,1.666,0.58138,0.052265,0.8195,0.02964,0.44154,0.038428,10.947,33,151,3.1225,207,2.6776,1.8414,0.39372,0.045935,0.63301,0.010443,0.050465,0.012992
57.622,88,149,56.767,285,1.4425,0.56635,0.84957,0.24361,17.804,0.18986,19.273,0.25389,35.231,202,159,55.397,296,1.6808,1.6987,0.50615,0.14421,6.2387,0.18528,17.148,0.23948,22.801,84,148,17.974,281,2.0209,1.4297,0.52,0.097463,2.8497,0.060112,1.7099,0.075623,13.732,38,158,4.6834,246,2.4658,0.99836,0.5298,0.058449,1.0249,0.015664,0.11598,0.019695,48.888,44,144,36.961,282,1.8944,1.5348,0.67379,0.18865,10.677,0.12361,7.7798,0.16131,24.001,204,146,37.13,292,2.0385,2.499,0.40551,0.095516,2.737,0.12418,7.2233,0.15543,13.34,79,144,9.9163,276,2.5103,0.94107,0.46464,0.055481,0.92345,0.033165,0.51286,0.041416,8.1949,27,143,2.0845,163,2.9299,0.69535,0.41014,0.034254,0.35201,0.0069717,0.023498,0.0088649
59.177,66,146,53.426,286,1.5034,1.3787,0.67899,0.23639,16.764,0.17868,16.634,0.23586,35.911,195,148,52.774,293,1.649,0.53887,0.56763,0.14955,6.7095,0.1765,15.037,0.22426,19.703,87,158,15.31,281,2.1301,2.8374,0.50997,0.085976,2.2175,0.051206,1.304,0.06604,15.089,33,166,5.0012,250,2.4209,1.8795,0.40045,0.061499,1.1346,0.016726,0.12685,0.020597,50.357,56,143,39.665,280,1.8402,1.3697,0.75603,0.19421,11.315,0.13266,8.6165,0.16976,24.917,207,158,40.043,296,1.9995,2.286,0.47879,0.099993,2.9996,0.13392,7.9397,0.16295,13.987,80,156,10.356,271,2.4702,1.5371,0.4396,0.058147,1.0143,0.034636,0.5651,0.043474,10.085,30,155,2.5537,200,2.7259,1.9711,0.49144,0.043832,0.57638,0.0085408,0.035989,0.010971
50.44,86,134,51.462,284,1.474,0.17274,1.1052,0.22575,15.289,0.17211,16.954,0.23812,34.225,205,143,50.82,295,1.659,1.9544,0.69664,0.14809,6.5792,0.16997,15.358,0.22664,21.263,75,150,14.988,287,2.0781,1.6968,0.58689,0.091259,2.4985,0.050127,1.1746,0.062678,15.17,34,159,4.3829,224,2.2406,1.5148,0.72362,0.076206,1.7422,0.014659,0.13393,0.021165,46.225,64,151,43.26,282,1.7787,0.8251,0.71993,0.18849,10.659,0.14468,10.962,0.19147,27.61,207,155,43.056,294,1.9046,0.83456,0.5542,0.11145,3.7263,0.144,10.303,0.18563,13.333,83,155,9.8762,273,2.5084,1.0316,0.46016,0.055643,0.92884,0.033031,0.50514,0.041103,10.868,27,144,2.7314,185,2.6535,0.39636,0.48926,0.047299,0.67115,0.0091352,0.04131,0.011754
55.633,90,147,56.665,281,1.479,1.3712,0.87291,0.23168,16.102,0.18951,21.319,0.26702,36.675,199,152,56.051,290,1.5936,1.5167,0.62492,0.15942,7.624,0.18746,19.672,0.2565,21.711,82,147,16.181,284,2.0518,0.77688,0.60426,0.094188,2.6614,0.054116,1.4831,0.070428,16.823,29,134,4.7509,246,2.2953,1.3217,0.50382,0.071104,1.5167,0.015889,0.12331,0.020308,38.482,41,137,42.616,261,1.7493,0.56452,0.52161,0.17356,9.037,0.14253,10.729,0.18943,29.229,186,153,42.5,292,1.8697,0.69577,0.45801,0.11654,4.0743,0.14214,9.9134,0.18209,15.393,71,159,10.924,273,2.3918,1.6654,0.46799,0.063683,1.2167,0.036535,0.66638,0.047209,8.7132,27,143,2.1896,155,2.7844,1.457,0.5998,0.040587,0.49419,0.0073232,0.02741,0.0095746
57.148,92,140,58.399,285,1.4497,1.3947,0.75571,0.23234,16.195,0.19531,20.544,0.26212,38.987,194,139,57.991,289,1.5915,2.1059,0.47734,0.15998,7.6777,0.19395,19.029,0.25227,20.334,81,153,15.38,282,2.1009,2.0913,0.55076,0.088908,2.3714,0.051439,1.3695,0.067679,18.117,28,149,4.5944,243,2.2156,1.4226,0.52963,0.077949,1.8228,0.015366,0.10435,0.018681,41.201,43,142,36.164,265,1.8333,0.32525,0.68134,0.175,9.1875,0.12095,7.8435,0.16196,22.985,204,156,36.221,286,2.0439,2.1591,0.48128,0.095004,2.7077,0.12114,7.1271,0.15439,13.54,82,150,9.9762,275,2.4514,0.63859,0.63395,0.059408,1.0588,0.033365,0.58024,0.044052,8.0575,38,154,2.6996,189,2.9057,0.73319,0.48109,0.035272,0.37324,0.0090288,0.03955,0.011501
55.99,83,148,57.557,289,1.5182,0.59131,0.51804,0.23354,16.362,0.1925,18.263,0.24715,36.74,201,147,57.074,295,1.6621,1.1282,0.36784,0.14753,6.5298,0.19088,16.452,0.23457,18.699,89,150,15.386,284,2.2168,2.341,0.46266,0.077883,1.8197,0.051457,1.1723,0.062615,13.158,39,146,5.2007,246,2.5377,4.5236,0.41442,0.053804,0.86845,0.017394,0.13786,0.021472,48.596,36,134,31.859,275,1.9921,1.2757,0.50417,0.18564,10.339,0.10655,5.5064,0.13571,20.497,201,148,31.489,296,2.187,1.1315,0.37063,0.080571,1.9475,0.10532,4.8816,0.12778,10.307,84,149,8.5353,269,2.7428,1.6421,0.44484,0.042451,0.54062,0.028546,0.38942,0.036089,8.3392,36,158,3.1441,215,2.9005,2.1482,0.64185,0.035455,0.37711,0.010515,0.058627,0.014003
53.493,94,144,59.317,284,1.461,0.16513,0.81082,0.22914,15.751,0.19838,20.82,0.26388,35.39,210,157,57.631,294,1.665,2.0002,0.55542,0.14697,6.4803,0.19275,18.353,0.24775,23.262,80,157,17.043,279,1.9967,1.452,0.52458,0.10032,3.019,0.057001,1.7376,0.076233,14.207,36,156,4.4007,233,2.4305,1.2725,0.45448,0.060863,1.1113,0.014718,0.099555,0.018247,45.562,50,141,36.757,275,1.9127,1.7288,0.61856,0.17891,9.6027,0.12293,7.2189,0.15538,23.778,206,147,37.038,291,2.0651,1.263,0.39268,0.092625,2.5738,0.12387,6.6056,0.14864,13.113,73,155,9.3233,267,2.5181,2.5481,0.48389,0.055022,0.90823,0.031181,0.4376,0.038256,7.2478,31,154,2.3186,164,3.0188,0.74326,0.503,0.030896,0.28636,0.0077545,0.031971,0.010341
51.885,88,146,50.799,291,1.5817,1.4332,0.69952,0.21272,13.575,0.1699,14.512,0.2203,34.347,187,146,50.137,296,1.6977,0.93126,0.57632,0.14139,5.9974,0.16768,13.35,0.21131,21.479,73,156,14.694,279,2.0971,2.1052,0.4229,0.089307,2.3927,0.049143,1.1338,0.061578,11.55,31,147,3.397,235,2.6351,1.3972,0.41751,0.048082,0.69356,0.011361,0.05576,0.013656,45.162,67,144,39.486,283,1.8528,1.3892,0.748,0.17841,9.549,0.13206,8.949,0.173,24.018,214,155,38.953,292,2.006,1.129,0.51842,0.099176,2.9508,0.13028,8.2403,0.16601,12.499,86,148,9.3781,272,2.5458,1.7679,0.46341,0.053258,0.85094,0.031365,0.47987,0.040061,10.45,33,157,3.239,222,2.7198,0.6671,0.52644,0.043813,0.57587,0.010833,0.051575,0.013134
55.879,74,131,58.654,276,1.4029,1.3954,1.0844,0.24294,17.707,0.19617,26.228,0.29617,39.337,186,146,59.218,294,1.4975,1.6118,0.77309,0.17815,9.5217,0.19805,24.427,0.28583,21.278,83,149,15.576,289,2.0231,1.4894,0.60476,0.097218,2.8354,0.052094,1.5216,0.071338,14.138,38,146,5.2679,251,2.4595,1.7285,0.44216,0.05885,1.039,0.017618,0.14166,0.021766,46.968,54,143,37.343,275,1.906,0.81357,0.80103,0.1834,10.091,0.12489,7.7101,0.16058,23.939,209,155,37.48,295,2.041,1.5691,0.46086,0.095374,2.7289,0.12535,7.1335,0.15446,12.661,83,152,9.0336,265,2.5135,0.85304,0.63195,0.055291,0.91712,0.030213,0.42628,0.037758,8.74,33,156,2.602,178,2.8159,0.7702,0.56594,0.039164,0.46014,0.0087024,0.038314,0.01132
59.816,89,139,63.372,284,1.3526,1.3959,0.92132,0.25693,19.803,0.21194,27.449,0.30299,40.831,195,145,63.423,296,1.4996,1.4027,0.58699,0.17769,9.4722,0.21212,25.3,0.29089,26.187,77,143,17.992,282,1.8718,0.49106,0.58926,0.1158,4.0232,0.060174,1.8163,0.07794,17.938,34,153,5.8318,256,2.2086,1.3946,0.63249,0.078554,1.8512,0.019504,0.19113,0.025283,46.876,38,133,28.314,263,2.0751,1.2203,0.50295,0.17798,9.5028,0.094694,4.4452,0.12193,18.33,197,152,28.514,289,2.2806,1.5765,0.32239,0.072276,1.5671,0.095366,4.1628,0.11799,8.265,85,147,6.2912,247,2.8893,1.2066,0.52508,0.035867,0.38594,0.021041,0.2157,0.026859,5.0243,38,149,1.7344,151,3.3323,1.5659,0.52019,0.021574,0.13964,0.0058006,0.015733,0.0072538
55.974,79,147,57.379,286,1.4598,1.5688,0.69831,0.23282,16.262,0.1919,18.912,0.2515,35.189,207,148,56.434,293,1.676,1.7235,0.45967,0.14497,6.3051,0.18874,17.236,0.2401,21.909,81,152,15.636,284,2.0683,0.41203,0.49414,0.092633,2.5742,0.052293,1.2357,0.064286,16.531,31,146,5.1044,255,2.3662,1.6727,0.3653,0.065632,1.2923,0.017071,0.12679,0.020593,45.058,46,125,30.992,260,2.0232,1.5521,0.58602,0.17214,8.8901,0.10365,5.3294,0.13351,19.929,202,144,30.529,291,2.1936,0.9538,0.46657,0.079907,1.9156,0.1021,4.6807,0.12512,9.4412,92,152,7.798,255,2.7258,1.434,0.58507,0.043315,0.56284,0.02608,0.37357,0.035347,7.775,37,145,2.424,185,2.9767,1.1262,0.43025,0.032428,0.31548,0.0081071,0.030031,0.010022
54.656,95,134,57.787,281,1.4619,1.3717,0.9402,0.231,16.008,0.19327,22.215,0.27258,36.964,211,146,58.153,298,1.6098,1.5841,0.56239,0.15646,7.3435,0.19449,19.977,0.25848,22.788,83,150,17.612,287,1.9822,0.48389,0.67632,0.10192,3.1161,0.058903,1.9238,0.080214,15.367,34,152,4.8742,247,2.3629,1.6344,0.50796,0.065786,1.2984,0.016302,0.13048,0.02089,45.995,36,137,31.451,273,2.0224,1.5755,0.62158,0.1755,9.2402,0.10519,5.4817,0.1354,20.06,198,147,31.29,296,2.1881,0.66142,0.42457,0.080396,1.939,0.10465,4.8193,0.12696,11.541,79,144,8.7244,267,2.6204,1.6086,0.46411,0.048875,0.71664,0.029179,0.42535,0.037717,6.0658,34,149,1.884,154,3.1728,1.5635,0.45282,0.025958,0.20215,0.0063009,0.018742,0.0079172
59.528,90,144,64.978,282,1.3226,1.3682,0.88563,0.25613,19.681,0.21732,25.653,0.29291,40.716,205,160,64.531,298,1.5516,1.0346,0.46209,0.16731,8.3976,0.21582,21.987,0.27117,28.703,82,153,22.539,285,1.818,0.81417,0.5822,0.12333,4.5628,0.075381,2.9862,0.099937,15.67,33,161,5.2823,238,2.3435,2.2603,0.43987,0.067239,1.3563,0.017667,0.17029,0.023865,44.828,32,141,30.635,278,2.0473,1.9002,0.54687,0.17136,8.8097,0.10246,4.9351,0.12847,18.901,205,151,29.972,297,2.2485,1.23,0.3993,0.075027,1.6887,0.10024,4.3879,0.12114,10.133,83,158,7.61,258,2.7292,1.1032,0.49425,0.043282,0.56199,0.025452,0.32464,0.032951,6.2965,35,148,2.1877,175,3.1958,0.97614,0.35717,0.025204,0.19057,0.0073166,0.026006,0.0093261
60.632,92,141,67.375,289,1.34,0.88965,0.7915,0.26175,20.553,0.22534,25.602,0.29262,42.934,202,149,67.052,297,1.5141,1.5834,0.44269,0.17471,9.1571,0.22425,23.202,0.27856,21.995,84,151,16.567,278,2.0402,0.88449,0.46717,0.09532,2.7258,0.055407,1.6504,0.074294,14.887,36,153,5.3289,244,2.4224,1.7079,0.42182,0.061409,1.1313,0.017822,0.14543,0.022054,45.482,54,142,34.767,285,1.9812,1.653,0.69316,0.17712,9.4114,0.11628,6.3158,0.14534,19.681,217,149,33.702,290,2.2109,1.0305,0.39002,0.078327,1.8405,0.11272,5.6455,0.13741,11.423,87,145,9.651,273,2.6588,1.0328,0.47369,0.046764,0.65605,0.032278,0.48422,0.040242,7.4499,39,151,2.5934,191,2.9579,1.5619,0.54464,0.033138,0.32945,0.0086737,0.036661,0.011073
60.225,80,139,61.739,285,1.3822,1.3784,0.71129,0.24711,18.319,0.20649,23.687,0.28146,40.731,202,147,62.607,293,1.539,1.9454,0.49318,0.16974,8.6434,0.20939,22.032,0.27145,23.561,78,146,16.243,281,2.0251,0.47619,0.45732,0.097004,2.8229,0.054325,1.3453,0.067078,18.089,34,149,5.9786,263,2.2649,1.7848,0.39787,0.073648,1.6272,0.019995,0.17261,0.024027,46.83,58,132,34.767,280,1.9323,1.5446,0.53602,0.18086,9.8132,0.11628,6.4433,0.1468,23.481,186,147,34.862,292,2.082,1.0592,0.32825,0.090847,2.4759,0.1166,6.0461,0.1422,13.196,76,147,8.7366,266,2.5111,1.6515,0.41313,0.055428,0.92168,0.02922,0.40333,0.036728,6.6135,35,148,2.0624,165,3.0551,0.16653,0.608,0.029743,0.26539,0.0068976,0.023035,0.0087772
57.895,85,134,64.035,276,1.3685,1,0.82455,0.252,19.051,0.21416,25.734,0.29337,42.341,204,152,64.635,298,1.5193,2.038,0.48296,0.17415,9.0982,0.21617,23.379,0.27963,25.019,79,145,18.136,290,1.9257,2.5469,0.5637,0.10876,3.5485,0.060656,1.8335,0.078307,17.847,32,157,5.8735,254,2.248,0.77456,0.47241,0.075101,1.6921,0.019644,0.18677,0.024993,45.507,49,140,32.293,276,1.9587,1.4281,0.60815,0.17491,9.1779,0.108,5.9664,0.14126,20.48,204,157,32.032,296,2.157,1.2545,0.4497,0.083361,2.0847,0.10713,5.5161,0.13582,10.736,81,153,8.0217,266,2.6987,1.913,0.47354,0.04481,0.60237,0.026829,0.34279,0.033859,8.5517,37,147,2.8659,207,2.9159,1.2351,0.39541,0.034812,0.36357,0.0095848,0.041451,0.011774
61.688,117,143,68.293,291,1.3525,0.77624,0.67779,0.25676,19.778,0.22841,25.597,0.29259,43.672,203,147,67.271,296,1.5016,1.7526,0.42556,0.17725,9.4247,0.22499,23.521,0.28048,23.552,82,148,18.084,287,2.0129,0.97699,0.43045,0.098409,2.9053,0.060482,1.6646,0.074614,17.909,35,158,5.9327,258,2.2268,0.64826,0.51559,0.076985,1.778,0.019842,0.19497,0.025536,46.476,39,129,28.288,274,2.043,1.376,0.75916,0.17375,9.0567,0.094609,4.6437,0.12462,17.593,199,145,27.6,292,2.2365,1.7756,0.65912,0.07604,1.7346,0.092308,4.1427,0.11771,11.152,79,147,7.6615,252,2.6622,1.1334,0.47109,0.046701,0.6543,0.025624,0.31158,0.032281,9.1329,28,146,2.4329,189,2.8589,1.9673,0.37939,0.037182,0.41476,0.0081369,0.031485,0.010262
67.112,99,144,77.321,285,1.1803,1.6795,0.83694,0.29351,25.845,0.2586,37.464,0.35398,50.429,195,146,78.394,296,1.3546,1.7198,0.47487,0.20999,13.229,0.26219,34.011,0.33727,34.005,80,149,23.83,283,1.6202,1.6211,0.60474,0.15469,7.1789,0.079701,3.2877,0.10486,16.566,40,144,6.266,257,2.2965,2.1644,0.4549,0.070963,1.5107,0.020957,0.2153,0.026834,43.838,50,128,32.344,268,2.0107,0.34847,0.6421,0.17113,8.7859,0.10817,5.7881,0.13913,20.605,204,142,32.082,289,2.1707,1.9039,0.38498,0.082025,2.0184,0.1073,5.2418,0.13241,10.828,89,145,8.4748,263,2.584,1.5873,0.78405,0.05099,0.77999,0.028344,0.43605,0.038189,7.3625,36,149,2.3808,185,2.9814,1.0005,0.50538,0.032254,0.3121,0.0079624,0.030622,0.01012
